Data from 1_mm_pl_30pc_Absorbance__0__16-35-45-978.txt Node

Date: Wed Mar 08 16:35:45 CET 2023
User: Ange
Spectrometer: FLMT08341
Trigger mode: 0
Integration Time (sec): 1.000000E-2
Scans to average: 400
Electric dark correction enabled: true
Nonlinearity correction enabled: false
Boxcar width: 3
XAxis mode: Wavelengths
Number of Pixels in Spectrum: 3648
>>>>>Begin Spectral Data<<<<<
345.271	0.01886892
345.487	0.00641782
345.704	-0.00446712
345.921	0.00452121
346.137	-0.01905119
346.354	-0.0077603
346.571	-0.04310057
346.787	-0.26547556
347.004	-0.01058812
347.22	-0.14131574
347.437	-0.0064118
347.653	-0.18985012
347.87	0.47398067
348.086	0.64763893
348.303	-1.07422136
348.519	0.35389067
348.736	0.35685893
348.952	0.37819122
349.169	0.39527684
349.385	0.41580582
349.601	0.41567671
349.818	0.4159324
350.034	0.41696223
350.251	0.41708231
350.467	0.42272132
350.683	0.4087737
350.9	0.40397042
351.116	0.40309229
351.332	0.39741104
351.549	0.40903416
351.765	0.42381203
351.981	0.43046292
352.197	0.45128308
352.414	0.47635911
352.63	0.48896732
352.846	0.50029386
353.062	0.49227942
353.278	0.47909761
353.495	0.49091395
353.711	0.49743071
353.927	0.49727936
354.143	0.50229794
354.359	0.49865102
354.575	0.49757776
354.792	0.51364613
355.008	0.49939741
355.224	0.48607589
355.44	0.47771597
355.656	0.46768268
355.872	0.47531949
356.088	0.50286631
356.304	0.50706577
356.52	0.51338285
356.736	0.52482851
356.952	0.53099252
357.168	0.53842939
357.384	0.5426119
357.6	0.52433499
357.816	0.53060522
358.032	0.54172258
358.248	0.55701153
358.464	0.5610753
358.679	0.57192774
358.895	0.57646251
359.111	0.58678301
359.327	0.57575327
359.543	0.58273201
359.759	0.5882462
359.974	0.58612172
360.19	0.58175863
360.406	0.5859554
360.622	0.58258166
360.838	0.58400115
361.053	0.58742784
361.269	0.58929852
361.485	0.59896278
361.701	0.6094344
361.916	0.60405512
362.132	0.60806357
362.348	0.61509068
362.563	0.61768346
362.779	0.61079289
362.995	0.61490218
363.21	0.61902688
363.426	0.62260498
363.641	0.63110943
363.857	0.63725752
364.073	0.63100266
364.288	0.62842034
364.504	0.64253958
364.719	0.64602877
364.935	0.64880011
365.15	0.65078359
365.366	0.65424238
365.581	0.6662471
365.797	0.67422103
366.012	0.66322607
366.228	0.65614707
366.443	0.66991764
366.658	0.67090229
366.874	0.66554214
367.089	0.67420431
367.305	0.68023885
367.52	0.68770862
367.735	0.69010904
367.951	0.68333153
368.166	0.69029285
368.381	0.70531086
368.597	0.69754376
368.812	0.70541176
369.027	0.71038588
369.243	0.71945537
369.458	0.73936835
369.673	0.74044428
369.888	0.74042222
370.104	0.73709584
370.319	0.73659709
370.534	0.73142758
370.749	0.72993002
370.964	0.72875417
371.179	0.72441359
371.395	0.7209496
371.61	0.7315482
371.825	0.72300528
372.04	0.73048038
372.255	0.72916234
372.47	0.7189827
372.685	0.71677033
372.9	0.7178007
373.115	0.71399414
373.33	0.7240091
373.545	0.72392915
373.76	0.73450707
373.975	0.7355005
374.19	0.7362389
374.405	0.74489371
374.62	0.75950924
374.835	0.77090527
375.05	0.77579234
375.265	0.77661823
375.48	0.78424227
375.695	0.80683833
375.91	0.80167479
376.125	0.78914104
376.339	0.77475656
376.554	0.77632818
376.769	0.77815652
376.984	0.78028158
377.199	0.78405819
377.414	0.78384503
377.628	0.79623012
377.843	0.80915003
378.058	0.81055244
378.273	0.81864417
378.487	0.82337985
378.702	0.82135993
378.917	0.82694407
379.131	0.82076465
379.346	0.81082696
379.561	0.80885047
379.775	0.80223686
379.99	0.79378426
380.205	0.78616361
380.419	0.78215381
380.634	0.77758085
380.848	0.78820038
381.063	0.79113105
381.278	0.80313675
381.492	0.80401495
381.707	0.81566981
381.921	0.81819546
382.136	0.8340797
382.35	0.83063858
382.565	0.82831669
382.779	0.82844915
382.994	0.83580919
383.208	0.83045693
383.422	0.84208918
383.637	0.84086037
383.851	0.85086206
384.066	0.86261706
384.28	0.86634009
384.494	0.86907285
384.709	0.87692899
384.923	0.87689623
385.137	0.8705255
385.352	0.86848796
385.566	0.872809
385.78	0.87107792
385.995	0.86944925
386.209	0.86405455
386.423	0.87030485
386.637	0.8796187
386.852	0.8764205
387.066	0.87246718
387.28	0.86792095
387.494	0.87949129
387.708	0.88713754
387.923	0.88690082
388.137	0.89519857
388.351	0.90530803
388.565	0.91534997
388.779	0.92289424
388.993	0.93435497
389.207	0.93986157
389.421	0.94508218
389.635	0.93615276
389.85	0.93390826
390.064	0.93429603
390.278	0.93828402
390.492	0.93641266
390.706	0.93954395
390.92	0.93926051
391.134	0.95304902
391.348	0.96973745
391.561	0.96622717
391.775	0.96413886
391.989	0.95733699
392.203	0.96173975
392.417	0.96824555
392.631	0.97714036
392.845	0.96903525
393.059	0.98192796
393.273	0.98565038
393.486	0.98279071
393.7	0.97343232
393.914	0.9784791
394.128	0.97014128
394.342	0.96825659
394.555	0.95538094
394.769	0.95759393
394.983	0.96760961
395.197	0.97908999
395.41	0.97738165
395.624	0.9841052
395.838	0.98820981
396.051	1.00907624
396.265	1.0080764
396.479	1.00994168
396.692	1.0099525
396.906	1.00656353
397.12	1.00534571
397.333	1.01294998
397.547	1.00520119
397.76	1.01377908
397.974	1.01580418
398.187	1.02012969
398.401	1.03014792
398.614	1.0345516
398.828	1.03405477
399.041	1.03952686
399.255	1.03667056
399.468	1.03628244
399.682	1.03540933
399.895	1.03747797
400.109	1.03641157
400.322	1.03512513
400.536	1.02672745
400.749	1.03687389
400.962	1.04279505
401.176	1.0416898
401.389	1.03930908
401.602	1.0309818
401.816	1.03704462
402.029	1.04708911
402.242	1.04330516
402.456	1.04210487
402.669	1.03867051
402.882	1.03236937
403.095	1.04645271
403.309	1.04625052
403.522	1.04837272
403.735	1.04609377
403.948	1.04583422
404.161	1.0655879
404.375	1.07321907
404.588	1.07359967
404.801	1.0749479
405.014	1.0700192
405.227	1.08270891
405.44	1.08944999
405.653	1.0874598
405.866	1.08252906
406.079	1.08034838
406.293	1.08087272
406.506	1.0838632
406.719	1.07928763
406.932	1.07607211
407.145	1.06908661
407.358	1.08385477
407.571	1.08055232
407.784	1.08489727
407.996	1.08990448
408.209	1.08365054
408.422	1.08092026
408.635	1.08606896
408.848	1.08339248
409.061	1.07851901
409.274	1.07571919
409.487	1.07263497
409.7	1.07728814
409.912	1.08020612
410.125	1.0792875
410.338	1.07718838
410.551	1.08087539
410.764	1.08128038
410.976	1.08220589
411.189	1.08383213
411.402	1.08159112
411.615	1.08443544
411.827	1.0865298
412.04	1.0897952
412.253	1.08789723
412.465	1.08674737
412.678	1.08331397
412.891	1.08929797
413.103	1.07765744
413.316	1.07330331
413.529	1.07817512
413.741	1.08473921
413.954	1.08783614
414.166	1.0893227
414.379	1.08540485
414.591	1.09391989
414.804	1.09302415
415.016	1.08986233
415.229	1.08543254
415.441	1.08045396
415.654	1.08257627
415.866	1.08383232
416.079	1.08483603
416.291	1.08398588
416.504	1.0877018
416.716	1.08863883
416.928	1.09116073
417.141	1.08798978
417.353	1.0890429
417.566	1.08205552
417.778	1.08349052
417.99	1.07362607
418.203	1.06707708
418.415	1.06607966
418.627	1.06730987
418.839	1.06501893
419.052	1.07202529
419.264	1.07222284
419.476	1.07549393
419.688	1.0786717
419.901	1.07814051
420.113	1.07538768
420.325	1.07273369
420.537	1.06579543
420.749	1.06569749
420.961	1.06662004
421.174	1.06356586
421.386	1.0583896
421.598	1.0561473
421.81	1.05428527
422.022	1.05329941
422.234	1.05100257
422.446	1.04614461
422.658	1.04471551
422.87	1.04621692
423.082	1.04526154
423.294	1.04397779
423.506	1.04328111
423.718	1.04060542
423.93	1.03689956
424.142	1.03365276
424.354	1.0292178
424.566	1.026084
424.778	1.02496679
424.99	1.02171029
425.202	1.01811691
425.414	1.01888266
425.625	1.02016198
425.837	1.01595045
426.049	1.01689072
426.261	1.01240709
426.473	1.00806062
426.684	1.00640594
426.896	1.00537726
427.108	1.00032506
427.32	1.0023703
427.531	0.99730641
427.743	0.99615795
427.955	0.99951584
428.167	0.99595298
428.378	0.99177079
428.59	0.9905188
428.802	0.98623483
429.013	0.98309119
429.225	0.97950099
429.436	0.97338464
429.648	0.97274734
429.86	0.97149029
430.071	0.96917509
430.283	0.96751376
430.494	0.96417165
430.706	0.96220294
430.917	0.95880386
431.129	0.95558396
431.34	0.95108704
431.552	0.94899322
431.763	0.94444578
431.975	0.94461265
432.186	0.93906244
432.398	0.93691151
432.609	0.92985784
432.821	0.92792728
433.032	0.92391754
433.243	0.92018549
433.455	0.91578359
433.666	0.91445844
433.877	0.91300877
434.089	0.91015586
434.3	0.90473731
434.511	0.89872815
434.723	0.89565612
434.934	0.8904325
435.145	0.88463785
435.356	0.87835532
435.568	0.87586345
435.779	0.87172111
435.99	0.86717791
436.201	0.86269824
436.412	0.85888427
436.624	0.85795146
436.835	0.85627978
437.046	0.85450841
437.257	0.8515338
437.468	0.85205269
437.679	0.85107182
437.89	0.84839597
438.101	0.8452914
438.312	0.84109765
438.523	0.83684463
438.734	0.83371698
438.945	0.8294603
439.156	0.82359072
439.367	0.82077503
439.578	0.81749606
439.789	0.81286
440	0.80975126
440.211	0.80561803
440.422	0.80183109
440.633	0.79992459
440.844	0.79445995
441.055	0.78979231
441.266	0.78748406
441.477	0.78246124
441.687	0.77963634
441.898	0.77599622
442.109	0.77096344
442.32	0.7679776
442.531	0.76251239
442.741	0.75610178
442.952	0.75227916
443.163	0.7481856
443.374	0.74312866
443.584	0.73891781
443.795	0.73528577
444.006	0.73242014
444.216	0.7295076
444.427	0.72477544
444.638	0.72022983
444.848	0.71651531
445.059	0.71280244
445.27	0.70827759
445.48	0.70390269
445.691	0.70040998
445.901	0.69753368
446.112	0.69399878
446.323	0.68926063
446.533	0.68491749
446.744	0.68054335
446.954	0.67625147
447.165	0.67198606
447.375	0.66868908
447.586	0.66494084
447.796	0.66190416
448.006	0.65845643
448.217	0.65555517
448.427	0.65220097
448.638	0.64764452
448.848	0.6426764
449.058	0.63833637
449.269	0.63440235
449.479	0.6302522
449.689	0.62590872
449.9	0.6221141
450.11	0.61860838
450.32	0.61559214
450.531	0.61150715
450.741	0.60725374
450.951	0.60374204
451.161	0.59964763
451.372	0.59590415
451.582	0.59355838
451.792	0.58898591
452.002	0.58549448
452.212	0.58131197
452.422	0.57753025
452.633	0.573577
452.843	0.57041905
453.053	0.56486757
453.263	0.56171275
453.473	0.55768511
453.683	0.55484919
453.893	0.55055602
454.103	0.54772426
454.313	0.54370654
454.523	0.54038866
454.733	0.53695212
454.943	0.5341395
455.153	0.53086718
455.363	0.52792436
455.573	0.5242036
455.783	0.520905
455.993	0.51758441
456.203	0.5144331
456.413	0.51090378
456.623	0.50719052
456.833	0.50447184
457.042	0.50118762
457.252	0.49802419
457.462	0.4946718
457.672	0.49145362
457.882	0.48822244
458.091	0.48493165
458.301	0.48093485
458.511	0.47758911
458.721	0.47434284
458.931	0.47131054
459.14	0.46801254
459.35	0.46546255
459.56	0.46280609
459.769	0.4605299
459.979	0.45754028
460.189	0.45470047
460.398	0.45177724
460.608	0.44938332
460.817	0.44639122
461.027	0.44356424
461.237	0.4404271
461.446	0.43779251
461.656	0.43543116
461.865	0.43257592
462.075	0.4295852
462.284	0.42699759
462.494	0.42411927
462.703	0.42111269
462.913	0.41864024
463.122	0.41561036
463.332	0.41318305
463.541	0.41096441
463.751	0.40820945
463.96	0.40588071
464.169	0.40369672
464.379	0.40163557
464.588	0.3994879
464.797	0.39721217
465.007	0.39464041
465.216	0.39257246
465.425	0.3904569
465.635	0.38830254
465.844	0.38586735
466.053	0.38346684
466.263	0.38110794
466.472	0.37886011
466.681	0.37640728
466.89	0.37390833
467.099	0.37165254
467.309	0.36940735
467.518	0.36756713
467.727	0.36557657
467.936	0.363639
468.145	0.36193991
468.354	0.36032822
468.563	0.35816099
468.772	0.35628058
468.982	0.35420414
469.191	0.35264554
469.4	0.35068318
469.609	0.34877084
469.818	0.34717778
470.027	0.34572601
470.236	0.34392396
470.445	0.34225584
470.654	0.34027913
470.863	0.33863657
471.072	0.33712572
471.28	0.33517453
471.489	0.33377753
471.698	0.33230758
471.907	0.33080729
472.116	0.32932083
472.325	0.32789324
472.534	0.32639773
472.743	0.32484056
472.951	0.32350565
473.16	0.32233724
473.369	0.3209741
473.578	0.31979781
473.786	0.31866405
473.995	0.31730427
474.204	0.31632977
474.413	0.31496869
474.621	0.31370325
474.83	0.31280242
475.039	0.3117205
475.247	0.31057789
475.456	0.30957358
475.665	0.30857231
475.873	0.30748986
476.082	0.30625053
476.291	0.30508669
476.499	0.30417969
476.708	0.3030057
476.916	0.30210517
477.125	0.30116127
477.333	0.30025927
477.542	0.29946842
477.75	0.29860934
477.959	0.29774346
478.167	0.29715782
478.376	0.29631415
478.584	0.29547345
478.793	0.2947111
479.001	0.29394051
479.209	0.29321649
479.418	0.2924714
479.626	0.29176828
479.834	0.29103238
480.043	0.29039989
480.251	0.28971638
480.459	0.28911755
480.668	0.28863042
480.876	0.28812174
481.084	0.28743873
481.293	0.28700785
481.501	0.28639751
481.709	0.28602001
481.917	0.28550144
482.125	0.28494056
482.334	0.28457475
482.542	0.28425823
482.75	0.2837611
482.958	0.28354984
483.166	0.28321185
483.374	0.28293147
483.583	0.28267921
483.791	0.28242758
483.999	0.28204452
484.207	0.28185723
484.415	0.28157309
484.623	0.28131979
484.831	0.28113932
485.039	0.28091517
485.247	0.28056164
485.455	0.28043517
485.663	0.28033683
485.871	0.28016316
486.079	0.27994287
486.287	0.27992833
486.495	0.27979554
486.702	0.27979321
486.91	0.27980153
487.118	0.27967974
487.326	0.27970038
487.534	0.2796974
487.742	0.27968437
487.95	0.27982931
488.157	0.27991668
488.365	0.28004345
488.573	0.28017766
488.781	0.28030408
488.988	0.28058943
489.196	0.28076804
489.404	0.28088316
489.612	0.28100597
489.819	0.28120758
490.027	0.2814074
490.235	0.28153573
490.442	0.2817569
490.65	0.28197756
490.857	0.28227431
491.065	0.28254589
491.273	0.2828176
491.48	0.28315189
491.688	0.28358597
491.895	0.28387736
492.103	0.28424429
492.31	0.28462904
492.518	0.28499822
492.725	0.28539467
492.933	0.28575406
493.14	0.28609293
493.348	0.28651005
493.555	0.28684097
493.763	0.28726257
493.97	0.28768674
494.177	0.28810108
494.385	0.2887085
494.592	0.28929685
494.8	0.28982499
495.007	0.2904622
495.214	0.29101113
495.422	0.29159103
495.629	0.29221089
495.836	0.29268125
496.043	0.29323405
496.251	0.29385115
496.458	0.29435567
496.665	0.29502725
496.872	0.29568452
497.08	0.29629201
497.287	0.2969027
497.494	0.29755779
497.701	0.2981811
497.908	0.29894802
498.115	0.29961295
498.322	0.30033911
498.53	0.30104391
498.737	0.30181193
498.944	0.30246189
499.151	0.30323901
499.358	0.30398637
499.565	0.30472292
499.772	0.30550282
499.979	0.30631059
500.186	0.30718578
500.393	0.3081247
500.6	0.30903953
500.807	0.30995624
501.014	0.31089236
501.221	0.31178131
501.427	0.31263777
501.634	0.3135289
501.841	0.31435829
502.048	0.3151476
502.255	0.31587281
502.462	0.31680571
502.669	0.31785564
502.875	0.31884784
503.082	0.31981454
503.289	0.32085729
503.496	0.32190293
503.702	0.32293776
503.909	0.32385699
504.116	0.32476566
504.323	0.32577874
504.529	0.32675325
504.736	0.32776987
504.943	0.32882531
505.149	0.32990705
505.356	0.33102094
505.563	0.33207364
505.769	0.33319107
505.976	0.33421209
506.182	0.33539354
506.389	0.33651801
506.595	0.33774881
506.802	0.33893574
507.008	0.34013371
507.215	0.34123831
507.421	0.34251256
507.628	0.34361803
507.834	0.34472715
508.041	0.34580882
508.247	0.34687621
508.454	0.34803712
508.66	0.3491696
508.866	0.35040156
509.073	0.35162231
509.279	0.35286045
509.486	0.35404921
509.692	0.35530378
509.898	0.35657995
510.105	0.35789305
510.311	0.35910536
510.517	0.3603642
510.723	0.36164169
510.93	0.36296039
511.136	0.36427078
511.342	0.36556485
511.548	0.36690486
511.754	0.3682404
511.961	0.36961629
512.167	0.37089555
512.373	0.37221953
512.579	0.37354181
512.785	0.37481351
512.991	0.37611152
513.197	0.3774366
513.404	0.37870332
513.61	0.38010948
513.816	0.38139494
514.022	0.38280853
514.228	0.38420129
514.434	0.38552047
514.64	0.38687487
514.846	0.38832296
515.052	0.38971766
515.258	0.391172
515.464	0.39249702
515.669	0.39390727
515.875	0.39543293
516.081	0.39688759
516.287	0.39833593
516.493	0.39979482
516.699	0.40127148
516.905	0.40273951
517.111	0.40421665
517.316	0.40559982
517.522	0.40707982
517.728	0.4085907
517.934	0.41009628
518.139	0.41156894
518.345	0.41304976
518.551	0.41458883
518.757	0.41625617
518.962	0.4177426
519.168	0.41921759
519.374	0.42063049
519.579	0.42211993
519.785	0.42378503
519.991	0.42533408
520.196	0.42679853
520.402	0.42832524
520.607	0.42994496
520.813	0.43172593
521.018	0.43332996
521.224	0.43477428
521.429	0.43639162
521.635	0.43795661
521.84	0.43948864
522.046	0.44110295
522.251	0.44259743
522.457	0.44419323
522.662	0.44587436
522.868	0.44743006
523.073	0.44903566
523.279	0.45069954
523.484	0.45212797
523.689	0.45371925
523.895	0.45536993
524.1	0.45687886
524.305	0.45843881
524.511	0.45997973
524.716	0.46160391
524.921	0.46326927
525.126	0.46493662
525.332	0.46659513
525.537	0.46824985
525.742	0.46996549
525.947	0.4717614
526.153	0.47338428
526.358	0.47509319
526.563	0.47674243
526.768	0.47845858
526.973	0.48024261
527.178	0.48197747
527.383	0.48357747
527.588	0.4853021
527.794	0.4869888
527.999	0.48871531
528.204	0.49038678
528.409	0.49201395
528.614	0.49378764
528.819	0.49560762
529.024	0.49738315
529.229	0.4991188
529.434	0.50096686
529.639	0.50266867
529.843	0.50446342
530.048	0.50609103
530.253	0.50770745
530.458	0.50943214
530.663	0.51108975
530.868	0.51277339
531.073	0.5144486
531.278	0.51607845
531.482	0.51779938
531.687	0.51964425
531.892	0.52131475
532.097	0.52302165
532.302	0.5247556
532.506	0.52641647
532.711	0.52815927
532.916	0.52991599
533.12	0.53155636
533.325	0.5332596
533.53	0.53513345
533.734	0.53680905
533.939	0.53856594
534.144	0.54039304
534.348	0.5421284
534.553	0.54392875
534.757	0.54565833
534.962	0.54735775
535.167	0.5492514
535.371	0.55110394
535.576	0.55302559
535.78	0.55481401
535.985	0.5566738
536.189	0.55849086
536.394	0.56030602
536.598	0.56195211
536.803	0.56378243
537.007	0.56544198
537.211	0.56738509
537.416	0.56907969
537.62	0.57095641
537.825	0.57276395
538.029	0.57483447
538.233	0.57664413
538.438	0.57844681
538.642	0.57996781
538.846	0.58187889
539.05	0.58362664
539.255	0.58525336
539.459	0.58686615
539.663	0.58859946
539.867	0.59044104
540.072	0.59232852
540.276	0.59391356
540.48	0.59573248
540.684	0.59762988
540.888	0.59952598
541.092	0.60133379
541.297	0.60307721
541.501	0.60495016
541.705	0.60697288
541.909	0.60884431
542.113	0.61064049
542.317	0.61248808
542.521	0.61428284
542.725	0.61614859
542.929	0.61791736
543.133	0.61968159
543.337	0.62152242
543.541	0.62339652
543.745	0.62505252
543.949	0.62682883
544.153	0.62844516
544.357	0.63010856
544.56	0.63188751
544.764	0.63362262
544.968	0.63524972
545.172	0.63685033
545.376	0.63872609
545.58	0.64061877
545.783	0.6426
545.987	0.6443061
546.191	0.64601581
546.395	0.64795094
546.598	0.64994374
546.802	0.65172972
547.006	0.65357905
547.21	0.65508247
547.413	0.65694893
547.617	0.65881679
547.821	0.66053713
548.024	0.66237244
548.228	0.66399834
548.431	0.66572712
548.635	0.66759299
548.839	0.66929338
549.042	0.67111635
549.246	0.67283441
549.449	0.67449304
549.653	0.67635316
549.856	0.67810311
550.06	0.67990426
550.263	0.68165879
550.467	0.68339712
550.67	0.68526692
550.874	0.68701989
551.077	0.68898589
551.28	0.69091572
551.484	0.69279355
551.687	0.69469702
551.891	0.69644235
552.094	0.69811957
552.297	0.69995587
552.501	0.70177059
552.704	0.70351523
552.907	0.70524201
553.11	0.70680232
553.314	0.70845666
553.517	0.71006015
553.72	0.71180959
553.923	0.71334344
554.127	0.71505313
554.33	0.71657481
554.533	0.71837457
554.736	0.71996613
554.939	0.7217461
555.142	0.72354186
555.345	0.72537506
555.549	0.72717538
555.752	0.72900426
555.955	0.73081413
556.158	0.73289525
556.361	0.73463881
556.564	0.73628133
556.767	0.73793891
556.97	0.73959435
557.173	0.74133103
557.376	0.74308247
557.579	0.74452155
557.782	0.7462502
557.984	0.74798939
558.187	0.74965157
558.39	0.75121585
558.593	0.75299782
558.796	0.75456572
558.999	0.75615681
559.202	0.75780166
559.404	0.75928482
559.607	0.76092272
559.81	0.76259411
560.013	0.76407381
560.216	0.76560526
560.418	0.76747813
560.621	0.76912328
560.824	0.77095334
561.026	0.77256725
561.229	0.77415518
561.432	0.77580719
561.634	0.77749593
561.837	0.77892741
562.04	0.78058213
562.242	0.78215878
562.445	0.78380827
562.647	0.78546011
562.85	0.78695922
563.053	0.78846078
563.255	0.7901843
563.458	0.79179731
563.66	0.79343281
563.863	0.79513689
564.065	0.79688699
564.268	0.79865129
564.47	0.80033756
564.672	0.80171902
564.875	0.803398
565.077	0.80488111
565.28	0.80624577
565.482	0.80777046
565.684	0.80922149
565.887	0.81083108
566.089	0.81249003
566.291	0.81382473
566.494	0.81538461
566.696	0.81676718
566.898	0.81828894
567.1	0.81974306
567.303	0.82112256
567.505	0.82251659
567.707	0.82375234
567.909	0.82507548
568.111	0.82652483
568.314	0.82787583
568.516	0.82929217
568.718	0.83069728
568.92	0.8322088
569.122	0.83387332
569.324	0.83539346
569.526	0.83693473
569.728	0.83850954
569.93	0.83989488
570.132	0.84123369
570.334	0.84262552
570.536	0.84391423
570.738	0.84521545
570.94	0.84640885
571.142	0.84781331
571.344	0.84897172
571.546	0.85038391
571.748	0.85183161
571.95	0.85317089
572.152	0.85439138
572.354	0.85573827
572.555	0.85710774
572.757	0.85888813
572.959	0.86021156
573.161	0.86122373
573.363	0.86260117
573.564	0.8642206
573.766	0.86546638
573.968	0.86658502
574.17	0.86750102
574.371	0.86893281
574.573	0.87023692
574.775	0.87133555
574.976	0.87233656
575.178	0.87356377
575.38	0.8746553
575.581	0.87571686
575.783	0.87684784
575.985	0.87813852
576.186	0.87946277
576.388	0.8807338
576.589	0.88193763
576.791	0.88315863
576.992	0.88467286
577.194	0.88581526
577.395	0.8868018
577.597	0.88788754
577.798	0.88896434
578	0.89007238
578.201	0.89115688
578.402	0.89215911
578.604	0.89302496
578.805	0.89425834
579.007	0.89529068
579.208	0.89627925
579.409	0.89747776
579.611	0.89843242
579.812	0.89964598
580.013	0.9008172
580.215	0.90153512
580.416	0.90249669
580.617	0.90340233
580.818	0.9043669
581.019	0.90537948
581.221	0.90612327
581.422	0.90693847
581.623	0.90820153
581.824	0.90902265
582.025	0.91004291
582.226	0.91091107
582.428	0.91192977
582.629	0.91296709
582.83	0.91391348
583.031	0.9147006
583.232	0.91604335
583.433	0.91715168
583.634	0.91802012
583.835	0.91878429
584.036	0.91959387
584.237	0.92046805
584.438	0.92139217
584.639	0.92184102
584.84	0.9225859
585.041	0.92324513
585.242	0.92405901
585.442	0.92480841
585.643	0.92582771
585.844	0.92653382
586.045	0.92757752
586.246	0.92816889
586.447	0.92898948
586.647	0.92963603
586.848	0.9302988
587.049	0.93086499
587.25	0.93153303
587.45	0.93198225
587.651	0.93275819
587.852	0.93345061
588.053	0.93435493
588.253	0.9348936
588.454	0.93564527
588.655	0.93621383
588.855	0.93671051
589.056	0.93726985
589.256	0.93798882
589.457	0.93844146
589.658	0.93935673
589.858	0.93965524
590.059	0.94030663
590.259	0.94099708
590.46	0.94141692
590.66	0.9417019
590.861	0.94213666
591.061	0.94253945
591.262	0.94335724
591.462	0.94398449
591.662	0.94446626
591.863	0.94514089
592.063	0.94590209
592.264	0.94645045
592.464	0.94690498
592.664	0.9473631
592.865	0.94779747
593.065	0.9480196
593.265	0.94849819
593.465	0.94869391
593.666	0.94914005
593.866	0.94942576
594.066	0.94957054
594.266	0.94979902
594.467	0.95000413
594.667	0.95025188
594.867	0.95054751
595.067	0.95085511
595.267	0.9512117
595.467	0.95154471
595.668	0.95193953
595.868	0.95252971
596.068	0.95275303
596.268	0.95313296
596.468	0.9532831
596.668	0.95371206
596.868	0.95376378
597.068	0.95393384
597.268	0.95418932
597.468	0.95435155
597.668	0.95451131
597.868	0.95467745
598.068	0.95453406
598.268	0.95493457
598.467	0.95512295
598.667	0.95525909
598.867	0.95521918
599.067	0.95547956
599.267	0.9556035
599.467	0.95569781
599.667	0.95546547
599.866	0.95567361
600.066	0.95581257
600.266	0.95595418
600.466	0.95588133
600.665	0.95584313
600.865	0.95581494
601.065	0.95624717
601.264	0.95595382
601.464	0.95590376
601.664	0.9561477
601.863	0.95631167
602.063	0.95654593
602.263	0.95639184
602.462	0.95630633
602.662	0.95646682
602.861	0.95624799
603.061	0.95617765
603.26	0.95604555
603.46	0.95566559
603.659	0.95568792
603.859	0.95565813
604.058	0.95545171
604.258	0.95555365
604.457	0.95576388
604.657	0.95534832
604.856	0.95521861
605.056	0.955203
605.255	0.95476652
605.454	0.95458852
605.654	0.95420847
605.853	0.95370626
606.052	0.95336925
606.252	0.95322423
606.451	0.95307253
606.65	0.95299338
606.849	0.95246428
607.049	0.95216423
607.248	0.95166666
607.447	0.95164971
607.646	0.95151583
607.845	0.95103721
608.045	0.95053869
608.244	0.95054941
608.443	0.950378
608.642	0.95022321
608.841	0.94984733
609.04	0.94931374
609.239	0.94912248
609.438	0.94884902
609.637	0.94836923
609.836	0.94802161
610.035	0.94753735
610.234	0.94717856
610.433	0.94678092
610.632	0.94634377
610.831	0.94590486
611.03	0.94548486
611.229	0.94518503
611.428	0.944874
611.627	0.94443317
611.826	0.94398236
612.025	0.94353243
612.224	0.94302617
612.422	0.94255605
612.621	0.94167332
612.82	0.94104033
613.019	0.94034316
613.218	0.93979128
613.416	0.9389178
613.615	0.9382946
613.814	0.93740427
614.012	0.93695312
614.211	0.93616963
614.41	0.93559601
614.608	0.93507852
614.807	0.93455738
615.006	0.93396555
615.204	0.93339302
615.403	0.93287868
615.602	0.93230523
615.8	0.93161845
615.999	0.93054678
616.197	0.92978427
616.396	0.92896294
616.594	0.92819927
616.793	0.92742676
616.991	0.92659992
617.19	0.92578951
617.388	0.92542012
617.586	0.92480052
617.785	0.92405827
617.983	0.92355503
618.182	0.92263609
618.38	0.92178337
618.578	0.92099302
618.777	0.92006813
618.975	0.919422
619.173	0.91870574
619.372	0.91784291
619.57	0.91704732
619.768	0.91647827
619.966	0.91570763
620.165	0.9147603
620.363	0.91389821
620.561	0.9130041
620.759	0.91218932
620.957	0.91144457
621.155	0.91049504
621.354	0.90966332
621.552	0.90900232
621.75	0.90787046
621.948	0.90705296
622.146	0.90593607
622.344	0.90470558
622.542	0.90369579
622.74	0.90245416
622.938	0.90140536
623.136	0.90062182
623.334	0.89969152
623.532	0.89871937
623.73	0.89791334
623.928	0.89700362
624.126	0.89613866
624.324	0.89530733
624.522	0.89397603
624.719	0.89255573
624.917	0.89155757
625.115	0.89024528
625.313	0.88920165
625.511	0.88828337
625.708	0.88684923
625.906	0.88595958
626.104	0.88504938
626.302	0.88395961
626.499	0.88306326
626.697	0.88200018
626.895	0.88079256
627.093	0.87992148
627.29	0.87896189
627.488	0.8779126
627.686	0.87693849
627.883	0.87585351
628.081	0.87452343
628.278	0.87363927
628.476	0.87236587
628.673	0.87110628
628.871	0.86995505
629.068	0.8687391
629.266	0.8675065
629.463	0.86641938
629.661	0.86502451
629.858	0.86389926
630.056	0.86259606
630.253	0.86144822
630.451	0.86012458
630.648	0.85881412
630.845	0.85753531
631.043	0.85619938
631.24	0.85493778
631.438	0.85353576
631.635	0.85216181
631.832	0.85074781
632.029	0.84968741
632.227	0.84839018
632.424	0.84726736
632.621	0.84580916
632.818	0.84456717
633.016	0.84317252
633.213	0.84188114
633.41	0.84037886
633.607	0.83900155
633.804	0.83751492
634.001	0.83619388
634.199	0.83475042
634.396	0.8335019
634.593	0.83213405
634.79	0.83080505
634.987	0.82940651
635.184	0.82814245
635.381	0.82683412
635.578	0.82558058
635.775	0.82425314
635.972	0.82295701
636.169	0.82153508
636.366	0.82024365
636.563	0.81875693
636.76	0.817281
636.957	0.81589888
637.153	0.81422934
637.35	0.81306713
637.547	0.81172381
637.744	0.81026438
637.941	0.80897335
638.138	0.80753536
638.334	0.80613053
638.531	0.80485459
638.728	0.80316441
638.925	0.80174087
639.121	0.80026373
639.318	0.79865231
639.515	0.79711101
639.711	0.7957059
639.908	0.79401387
640.105	0.79243141
640.301	0.79078896
640.498	0.78924235
640.695	0.78793195
640.891	0.78649999
641.088	0.78488165
641.284	0.78343003
641.481	0.78200339
641.677	0.78056533
641.874	0.77894685
642.07	0.77727528
642.267	0.7760225
642.463	0.77448525
642.66	0.77322392
642.856	0.77167302
643.053	0.77004252
643.249	0.76867053
643.445	0.76713687
643.642	0.76533772
643.838	0.76389611
644.034	0.76222209
644.231	0.76074394
644.427	0.75928331
644.623	0.75768436
644.82	0.75613031
645.016	0.75454114
645.212	0.75283767
645.408	0.75127569
645.604	0.7498664
645.801	0.74844761
645.997	0.74684485
646.193	0.74535523
646.389	0.7439994
646.585	0.74262115
646.781	0.74111526
646.977	0.73950199
647.173	0.7378107
647.37	0.73630272
647.566	0.73456327
647.762	0.73289308
647.958	0.73133448
648.154	0.72961755
648.35	0.72801182
648.546	0.72632562
648.742	0.7248014
648.937	0.72327877
649.133	0.72180257
649.329	0.72006908
649.525	0.71852122
649.721	0.71686489
649.917	0.71540312
650.113	0.71361362
650.309	0.71212638
650.504	0.71025328
650.7	0.70856761
650.896	0.70685679
651.092	0.70511172
651.287	0.70338055
651.483	0.70178274
651.679	0.70009726
651.875	0.6985203
652.07	0.69691728
652.266	0.69525849
652.462	0.69367995
652.657	0.69194788
652.853	0.69020946
653.048	0.68845247
653.244	0.68674918
653.44	0.68510936
653.635	0.68343415
653.831	0.6817527
654.026	0.68033014
654.222	0.67868807
654.417	0.67716265
654.613	0.67542279
654.808	0.67359895
655.004	0.67192211
655.199	0.67021356
655.394	0.66838585
655.59	0.66680119
655.785	0.66495156
655.98	0.6633645
656.176	0.66164199
656.371	0.66009419
656.566	0.65851451
656.762	0.65678386
656.957	0.65500604
657.152	0.6533529
657.348	0.65163747
657.543	0.65006959
657.738	0.64829583
657.933	0.6465641
658.128	0.64487884
658.324	0.64321706
658.519	0.64159004
658.714	0.63997645
658.909	0.63819051
659.104	0.6366288
659.299	0.63487282
659.494	0.63315931
659.689	0.63150377
659.884	0.62968924
660.079	0.62790129
660.274	0.62626504
660.469	0.62444846
660.664	0.62283054
660.859	0.62113855
661.054	0.61935464
661.249	0.61772119
661.444	0.61610262
661.639	0.61441219
661.834	0.61267533
662.029	0.61099351
662.224	0.60929837
662.418	0.60762543
662.613	0.6060087
662.808	0.60418335
663.003	0.60249257
663.198	0.60079402
663.392	0.59889967
663.587	0.59729793
663.782	0.59556927
663.977	0.59384007
664.171	0.59230361
664.366	0.59060443
664.561	0.58894177
664.755	0.58726485
664.95	0.58546039
665.144	0.58372225
665.339	0.58205731
665.534	0.58028363
665.728	0.57863239
665.923	0.57694157
666.117	0.5752758
666.312	0.57362942
666.506	0.57199176
666.701	0.57015627
666.895	0.56844368
667.09	0.56668377
667.284	0.56513157
667.479	0.5634705
667.673	0.56184389
667.867	0.56027552
668.062	0.55875561
668.256	0.55718366
668.45	0.55572134
668.645	0.55396664
668.839	0.55239758
669.033	0.55059692
669.228	0.54884238
669.422	0.54709183
669.616	0.5452935
669.81	0.54354347
670.004	0.5417741
670.199	0.54003726
670.393	0.53840081
670.587	0.53671667
670.781	0.53507626
670.975	0.53346852
671.169	0.53164546
671.363	0.53011546
671.558	0.52847591
671.752	0.52691447
671.946	0.52533508
672.14	0.52371889
672.334	0.52198972
672.528	0.52056896
672.722	0.51871658
672.916	0.5170767
673.11	0.51535699
673.304	0.5138486
673.497	0.51203684
673.691	0.5105993
673.885	0.50880313
674.079	0.50731501
674.273	0.50564051
674.467	0.50409249
674.661	0.5023398
674.854	0.50072284
675.048	0.49898738
675.242	0.49750231
675.436	0.49579853
675.629	0.49406606
675.823	0.49228173
676.017	0.49071866
676.211	0.48916389
676.404	0.48752207
676.598	0.48587315
676.792	0.48435996
676.985	0.48294029
677.179	0.48143351
677.372	0.4797318
677.566	0.47810574
677.76	0.47650152
677.953	0.47470873
678.147	0.47313302
678.34	0.47156288
678.534	0.47001589
678.727	0.46855853
678.921	0.467267
679.114	0.46577646
679.307	0.46447794
679.501	0.46294372
679.694	0.46133994
679.888	0.45972774
680.081	0.45812983
680.274	0.45628277
680.468	0.45463477
680.661	0.452873
680.854	0.45124029
681.048	0.44966808
681.241	0.44806914
681.434	0.44656165
681.627	0.44513793
681.821	0.4436988
682.014	0.44232976
682.207	0.440797
682.4	0.43926802
682.593	0.43779237
682.786	0.43624004
682.98	0.43469727
683.173	0.43325445
683.366	0.43175468
683.559	0.43039577
683.752	0.42903204
683.945	0.42756836
684.138	0.42620676
684.331	0.42472968
684.524	0.42323376
684.717	0.42167463
684.91	0.42011754
685.103	0.41862427
685.296	0.41720779
685.489	0.41566043
685.682	0.41417938
685.874	0.41277419
686.067	0.41135276
686.26	0.40988493
686.453	0.40834669
686.646	0.40677404
686.839	0.40534075
687.031	0.40379306
687.224	0.40212503
687.417	0.40067002
687.61	0.39919664
687.802	0.39772483
687.995	0.39631469
688.188	0.39488986
688.38	0.39351435
688.573	0.3922036
688.766	0.39079712
688.958	0.38936931
689.151	0.38801824
689.343	0.38670037
689.536	0.38535991
689.729	0.38399009
689.921	0.38265123
690.114	0.38127721
690.306	0.3799427
690.499	0.37856144
690.691	0.37718221
690.884	0.37576627
691.076	0.37442969
691.268	0.37302194
691.461	0.37163941
691.653	0.3703391
691.846	0.36898347
692.038	0.36763268
692.23	0.36620633
692.423	0.3649465
692.615	0.36367382
692.807	0.36239539
692.999	0.36109843
693.192	0.35979527
693.384	0.35850993
693.576	0.35725061
693.768	0.35595419
693.961	0.35460979
694.153	0.35334258
694.345	0.35197842
694.537	0.35068251
694.729	0.34937192
694.921	0.34804515
695.113	0.34673843
695.305	0.3454204
695.498	0.34407285
695.69	0.34281489
695.882	0.34153855
696.074	0.340373
696.266	0.33919694
696.458	0.33783596
696.65	0.33657907
696.842	0.33534463
697.033	0.33407073
697.225	0.33284658
697.417	0.33153669
697.609	0.33024841
697.801	0.32905644
697.993	0.32786596
698.185	0.32665881
698.376	0.32550261
698.568	0.32428475
698.76	0.32310717
698.952	0.32193798
699.144	0.32079204
699.335	0.3196754
699.527	0.31853428
699.719	0.31740655
699.91	0.31632368
700.102	0.3151893
700.294	0.31401804
700.485	0.31285723
700.677	0.31162999
700.869	0.31048616
701.06	0.30930823
701.252	0.30812381
701.443	0.30701479
701.635	0.30589827
701.826	0.30475442
702.018	0.30363164
702.209	0.30248784
702.401	0.30132933
702.592	0.30024759
702.784	0.29919704
702.975	0.29812698
703.166	0.29712421
703.358	0.29604847
703.549	0.29506443
703.741	0.29405999
703.932	0.29294675
704.123	0.29183558
704.315	0.29077506
704.506	0.28968976
704.697	0.28856739
704.888	0.28747115
705.08	0.28648414
705.271	0.28552237
705.462	0.28445419
705.653	0.28341902
705.844	0.28243051
706.035	0.28149261
706.227	0.2805376
706.418	0.27946371
706.609	0.27842596
706.8	0.27741114
706.991	0.27636072
707.182	0.27535855
707.373	0.27430214
707.564	0.2732521
707.755	0.27221393
707.946	0.27117934
708.137	0.27010824
708.328	0.26904715
708.519	0.26803529
708.71	0.26709097
708.901	0.26610789
709.092	0.26523797
709.283	0.26437908
709.473	0.26355169
709.664	0.26281889
709.855	0.26189772
710.046	0.26103166
710.237	0.26011502
710.427	0.25913353
710.618	0.25820458
710.809	0.25720247
711	0.25626514
711.19	0.25538205
711.381	0.2545086
711.572	0.25365867
711.762	0.25287611
711.953	0.25197085
712.144	0.2511263
712.334	0.25019077
712.525	0.24936283
712.715	0.24853157
712.906	0.24762287
713.097	0.24659594
713.287	0.24570967
713.478	0.24479889
713.668	0.24392025
713.859	0.24296131
714.049	0.24204361
714.239	0.24122709
714.43	0.24049343
714.62	0.23965531
714.811	0.23882005
715.001	0.23799653
715.191	0.237191
715.382	0.23629403
715.572	0.23547989
715.762	0.2346541
715.953	0.23391928
716.143	0.23317823
716.333	0.2323752
716.523	0.23159221
716.714	0.23088479
716.904	0.23004445
717.094	0.22928681
717.284	0.22842513
717.474	0.22762726
717.664	0.22692626
717.855	0.2261746
718.045	0.22537886
718.235	0.22461782
718.425	0.22384716
718.615	0.22317696
718.805	0.22248609
718.995	0.22184383
719.185	0.22118723
719.375	0.22049139
719.565	0.21986796
719.755	0.21921655
719.945	0.21850705
720.135	0.21780033
720.325	0.21705084
720.515	0.21629604
720.704	0.21570839
720.894	0.21510965
721.084	0.21450421
721.274	0.21389526
721.464	0.21330679
721.654	0.21274609
721.843	0.2121858
722.033	0.211558
722.223	0.21085362
722.413	0.21013174
722.602	0.20951495
722.792	0.20887505
722.982	0.20822342
723.171	0.20759857
723.361	0.20689908
723.55	0.20629415
723.74	0.20566775
723.93	0.20496013
724.119	0.20430142
724.309	0.2036263
724.498	0.20294718
724.688	0.2023854
724.877	0.20174218
725.067	0.20117018
725.256	0.20061851
725.446	0.2000043
725.635	0.19939228
725.825	0.19870042
726.014	0.19802625
726.203	0.19734024
726.393	0.19665391
726.582	0.19596033
726.771	0.19534256
726.961	0.19477927
727.15	0.19428757
727.339	0.19380625
727.529	0.1933953
727.718	0.19289438
727.907	0.19237644
728.096	0.1918214
728.286	0.19119229
728.475	0.19067793
728.664	0.19008399
728.853	0.18948228
729.042	0.18889881
729.231	0.18840314
729.42	0.18788304
729.609	0.1874323
729.799	0.18686444
729.988	0.18636088
730.177	0.18579397
730.366	0.18526299
730.555	0.18472119
730.744	0.18428003
730.933	0.18372014
731.122	0.18322324
731.31	0.18269869
731.499	0.18225977
731.688	0.1817592
731.877	0.1812394
732.066	0.18069785
732.255	0.18023288
732.444	0.17974769
732.632	0.1791613
732.821	0.17863092
733.01	0.17817741
733.199	0.17769459
733.388	0.17721951
733.576	0.17676466
733.765	0.17629542
733.954	0.17597056
734.142	0.17550838
734.331	0.17497906
734.52	0.17450776
734.708	0.17399623
734.897	0.17349712
735.086	0.17301809
735.274	0.17245686
735.463	0.17205334
735.651	0.171678
735.84	0.17123172
736.028	0.17076156
736.217	0.17030626
736.405	0.1698416
736.594	0.16939503
736.782	0.16884539
736.971	0.16836783
737.159	0.16798786
737.347	0.1676611
737.536	0.16726347
737.724	0.16692845
737.912	0.16658937
738.101	0.16630701
738.289	0.16599337
738.477	0.1656205
738.666	0.16526919
738.854	0.16495034
739.042	0.16460063
739.23	0.16423543
739.418	0.16388282
739.607	0.16348818
739.795	0.16314558
739.983	0.16277696
740.171	0.16244284
740.359	0.16213573
740.547	0.16190084
740.735	0.16157497
740.923	0.16129936
741.112	0.16101318
741.3	0.16067261
741.488	0.16028424
741.676	0.15987946
741.864	0.15945387
742.052	0.15908997
742.239	0.15868364
742.427	0.15833095
742.615	0.15802518
742.803	0.15776942
742.991	0.15745046
743.179	0.15716845
743.367	0.1569164
743.555	0.15673414
743.742	0.15651148
743.93	0.15624392
744.118	0.1559451
744.306	0.15576744
744.494	0.15561833
744.681	0.15543693
744.869	0.15519208
745.057	0.15495518
745.244	0.1547914
745.432	0.15463596
745.62	0.1544328
745.807	0.15415346
745.995	0.1538653
746.182	0.15353863
746.37	0.15319777
746.558	0.15282819
746.745	0.15252254
746.933	0.15214906
747.12	0.15184932
747.308	0.15154674
747.495	0.15130494
747.683	0.15104148
747.87	0.15082715
748.057	0.15056782
748.245	0.15038778
748.432	0.15009859
748.62	0.1498386
748.807	0.14959139
748.994	0.14936115
749.182	0.14909619
749.369	0.1488536
749.556	0.14862168
749.743	0.1484285
749.931	0.14827746
750.118	0.14815285
750.305	0.14800053
750.492	0.14784827
750.68	0.14771898
750.867	0.14752252
751.054	0.14737752
751.241	0.14710495
751.428	0.14676094
751.615	0.14639584
751.802	0.14611452
751.989	0.14579619
752.176	0.14559405
752.363	0.1453043
752.55	0.14508489
752.737	0.14495174
752.924	0.14485243
753.111	0.14468909
753.298	0.1445565
753.485	0.14435852
753.672	0.14426176
753.859	0.14424927
754.046	0.14414109
754.233	0.14404508
754.42	0.14401204
754.606	0.14384789
754.793	0.14366704
754.98	0.14350274
755.167	0.14321352
755.353	0.14304616
755.54	0.14285949
755.727	0.14260526
755.914	0.14249844
756.1	0.14244319
756.287	0.14224729
756.474	0.14206704
756.66	0.14189706
756.847	0.14179116
757.033	0.14166225
757.22	0.14148141
757.407	0.14134663
757.593	0.14126154
757.78	0.14119829
757.966	0.14108134
758.153	0.14095786
758.339	0.14078924
758.526	0.14066568
758.712	0.14040288
758.898	0.14023264
759.085	0.1401068
759.271	0.13996285
759.458	0.13980353
759.644	0.13972034
759.83	0.13960847
760.017	0.13957787
760.203	0.13946033
760.389	0.13931447
760.576	0.13915679
760.762	0.13904475
760.948	0.13895129
761.134	0.13890485
761.32	0.13882632
761.507	0.13877204
761.693	0.13871481
761.879	0.13871465
762.065	0.13867736
762.251	0.13862556
762.437	0.13856947
762.623	0.13854979
762.809	0.13850156
762.995	0.13848126
763.181	0.13840497
763.367	0.13833356
763.553	0.13832026
763.739	0.13820843
763.925	0.13807064
764.111	0.13804256
764.297	0.13798081
764.483	0.13797089
764.669	0.13788921
764.855	0.13773924
765.041	0.13766425
765.227	0.13759983
765.412	0.13750304
765.598	0.1374584
765.784	0.13733489
765.97	0.13729826
766.156	0.13723287
766.341	0.13717422
766.527	0.13711469
766.713	0.1370839
766.898	0.13705104
767.084	0.13705355
767.27	0.13703747
767.455	0.13711179
767.641	0.1371184
767.827	0.13714768
768.012	0.13712661
768.198	0.13705684
768.383	0.13699998
768.569	0.13700154
768.754	0.13692774
768.94	0.13682811
769.125	0.13669193
769.311	0.13656537
769.496	0.13643411
769.682	0.13637915
769.867	0.13633314
770.052	0.1363093
770.238	0.13642006
770.423	0.13656313
770.608	0.13665453
770.794	0.13675814
770.979	0.13676467
771.164	0.13666591
771.35	0.13658883
771.535	0.13645243
771.72	0.1363687
771.905	0.1363396
772.09	0.13638174
772.276	0.13647988
772.461	0.13649935
772.646	0.13654159
772.831	0.136637
773.016	0.13666444
773.201	0.13670845
773.386	0.13671421
773.571	0.13674334
773.756	0.13680494
773.941	0.13686576
774.126	0.13688999
774.311	0.13687435
774.496	0.13692489
774.681	0.13695854
774.866	0.13688963
775.051	0.13690014
775.236	0.13691633
775.421	0.13694933
775.606	0.1370134
775.791	0.13696724
775.976	0.13694915
776.16	0.13698215
776.345	0.1370119
776.53	0.1370006
776.715	0.13690702
776.899	0.13685018
777.084	0.13679453
777.269	0.13670162
777.454	0.1366182
777.638	0.13656155
777.823	0.13643546
778.008	0.13644626
778.192	0.13643202
778.377	0.13651245
778.561	0.1366024
778.746	0.13679316
778.931	0.13701002
779.115	0.13725348
779.3	0.13731794
779.484	0.13733199
779.669	0.13725384
779.853	0.13712916
780.037	0.13691171
780.222	0.13667552
780.406	0.13639783
780.591	0.1362106
780.775	0.13605366
780.959	0.13589673
781.144	0.13579839
781.328	0.13568164
781.512	0.13551261
781.697	0.13546071
781.881	0.13539852
782.065	0.13547512
782.249	0.1355509
782.434	0.13560805
782.618	0.13563827
782.802	0.13575667
782.986	0.13583225
783.17	0.1359001
783.354	0.13589278
783.539	0.13590191
783.723	0.13587797
783.907	0.13599011
784.091	0.13602858
784.275	0.13607313
784.459	0.13613667
784.643	0.13610212
784.827	0.13613151
785.011	0.13617982
785.195	0.13613348
785.379	0.13616388
785.563	0.13616821
785.747	0.1361717
785.93	0.13620319
786.114	0.13608663
786.298	0.13602914
786.482	0.13594563
786.666	0.13582649
786.85	0.135633
787.033	0.13551792
787.217	0.1354077
787.401	0.13537511
787.585	0.13540154
787.768	0.1354363
787.952	0.13546624
788.136	0.13551911
788.319	0.13554308
788.503	0.13554558
788.687	0.13562586
788.87	0.13559951
789.054	0.1355682
789.237	0.13560928
789.421	0.13568498
789.605	0.13571691
789.788	0.13586285
789.972	0.13597109
790.155	0.1360252
790.338	0.13614612
790.522	0.13614478
790.705	0.1361433
790.889	0.13612985
791.072	0.13606205
791.256	0.13610973
791.439	0.1361663
791.622	0.13617724
791.806	0.13616545
791.989	0.13617924
792.172	0.13624664
792.355	0.13626103
792.539	0.13618972
792.722	0.13615175
792.905	0.13613712
793.088	0.13622273
793.271	0.13626947
793.455	0.13638148
793.638	0.13656656
793.821	0.13671494
794.004	0.13683556
794.187	0.1369854
794.37	0.13719677
794.553	0.1374073
794.736	0.13755395
794.919	0.13769963
795.102	0.13783952
795.285	0.13802504
795.468	0.13817497
795.651	0.13820909
795.834	0.13843494
796.017	0.13860034
796.2	0.13867513
796.383	0.13884899
796.566	0.13903494
796.749	0.13922055
796.931	0.13940658
797.114	0.13940944
797.297	0.13944675
797.48	0.13954039
797.663	0.13950846
797.845	0.13947601
798.028	0.13949713
798.211	0.13945897
798.393	0.13939409
798.576	0.13932773
798.759	0.13931296
798.941	0.13941739
799.124	0.13952218
799.307	0.13958138
799.489	0.13969625
799.672	0.13983254
799.854	0.14006627
800.037	0.1402638
800.219	0.14046711
800.402	0.14063967
800.584	0.14083633
800.767	0.14103982
800.949	0.1412938
801.132	0.14144984
801.314	0.14162593
801.496	0.14162501
801.679	0.14161464
801.861	0.14153364
802.043	0.14150011
802.226	0.14145791
802.408	0.14140187
802.59	0.14129262
802.772	0.14120817
802.955	0.14121322
803.137	0.14118182
803.319	0.14114788
803.501	0.14115204
803.684	0.14121459
803.866	0.14130693
804.048	0.14143936
804.23	0.14157202
804.412	0.14171069
804.594	0.14183559
804.776	0.14193273
804.958	0.14194387
805.14	0.14201518
805.322	0.14198255
805.504	0.14195149
805.686	0.14188855
805.868	0.14184573
806.05	0.14172901
806.232	0.14172691
806.414	0.14161413
806.596	0.14157939
806.778	0.14148188
806.96	0.14148182
807.141	0.1414505
807.323	0.14151216
807.505	0.14147658
807.687	0.141436
807.869	0.1414833
808.05	0.14150809
808.232	0.14156101
808.414	0.14168277
808.595	0.14172589
808.777	0.14181608
808.959	0.14188254
809.14	0.14190636
809.322	0.14199596
809.504	0.14200911
809.685	0.14189537
809.867	0.14183916
810.048	0.14169882
810.23	0.14164906
810.411	0.14152108
810.593	0.14134211
810.774	0.141249
810.956	0.14116879
811.137	0.14106256
811.319	0.14097005
811.5	0.14078996
811.681	0.14074106
811.863	0.14071302
812.044	0.14061177
812.225	0.14062983
812.407	0.14067616
812.588	0.14072809
812.769	0.14076054
812.951	0.14074598
813.132	0.14073321
813.313	0.14084347
813.494	0.14086468
813.675	0.14091487
813.857	0.14097454
814.038	0.14109866
814.219	0.14111421
814.4	0.14110735
814.581	0.1410477
814.762	0.14093876
814.943	0.14084355
815.124	0.14077518
815.305	0.14082417
815.486	0.14097446
815.667	0.14110841
815.848	0.1411668
816.029	0.14124038
816.21	0.14133713
816.391	0.14148072
816.572	0.14150176
816.753	0.14154008
816.934	0.14158602
817.115	0.14169911
817.295	0.1418477
817.476	0.14190307
817.657	0.14197241
817.838	0.14212888
818.019	0.14218061
818.199	0.1423176
818.38	0.14247269
818.561	0.14256663
818.741	0.14272043
818.922	0.14270727
819.103	0.14269333
819.283	0.14288361
819.464	0.14294006
819.645	0.14293195
819.825	0.14296054
820.006	0.14287891
820.186	0.14293651
820.367	0.14299692
820.547	0.14289482
820.728	0.14294282
820.908	0.14304598
821.089	0.14326675
821.269	0.14351921
821.45	0.14373535
821.63	0.14384183
821.81	0.14396604
821.991	0.14397795
822.171	0.14403424
822.351	0.14405602
822.532	0.14403225
822.712	0.14401621
822.892	0.14414349
823.072	0.14432351
823.253	0.14468899
823.433	0.14488497
823.613	0.14507454
823.793	0.14535477
823.973	0.14567964
824.154	0.14581557
824.334	0.14590928
824.514	0.1459238
824.694	0.14598652
824.874	0.14598675
825.054	0.14598914
825.234	0.14589713
825.414	0.1459155
825.594	0.14591296
825.774	0.14584859
825.954	0.14580752
826.134	0.14574917
826.314	0.14561514
826.494	0.14560434
826.674	0.14561118
826.854	0.14561094
827.033	0.14567796
827.213	0.14582795
827.393	0.14600496
827.573	0.14626149
827.753	0.14644433
827.932	0.14661923
828.112	0.14673677
828.292	0.14682498
828.472	0.14686675
828.651	0.14682897
828.831	0.14678887
829.011	0.14670691
829.19	0.1465946
829.37	0.1466067
829.549	0.14658443
829.729	0.14652264
829.909	0.14651564
830.088	0.14654365
830.268	0.14653303
830.447	0.14661214
830.627	0.14661681
830.806	0.14669661
830.986	0.14676764
831.165	0.14688322
831.344	0.14697575
831.524	0.14713592
831.703	0.14724188
831.883	0.14730579
832.062	0.14729511
832.241	0.14731551
832.421	0.14730643
832.6	0.14727128
832.779	0.14721204
832.958	0.14709311
833.138	0.14704397
833.317	0.14699286
833.496	0.14691019
833.675	0.14691923
833.854	0.14694707
834.034	0.14699285
834.213	0.14713435
834.392	0.14737875
834.571	0.14754019
834.75	0.14775124
834.929	0.1478636
835.108	0.14797171
835.287	0.14802763
835.466	0.14809665
835.645	0.14810584
835.824	0.14805365
836.003	0.1480249
836.182	0.14807745
836.361	0.14808689
836.54	0.14803612
836.719	0.14804641
836.897	0.14795814
837.076	0.14810076
837.255	0.14822
837.434	0.1482728
837.613	0.14829185
837.791	0.14842947
837.97	0.14841343
838.149	0.14846797
838.328	0.14846741
838.506	0.14839535
838.685	0.14831736
838.864	0.14839389
839.042	0.14840858
839.221	0.14846404
839.4	0.14845643
839.578	0.14850647
839.757	0.14860846
839.935	0.14868248
840.114	0.14873872
840.292	0.1487494
840.471	0.14885258
840.649	0.14894537
840.828	0.14892445
841.006	0.14886273
841.185	0.14881272
841.363	0.14867532
841.541	0.14868102
841.72	0.14859755
841.898	0.14859687
842.076	0.14854725
842.255	0.14854834
842.433	0.14865434
842.611	0.14871563
842.789	0.14871456
842.968	0.14875699
843.146	0.14874482
843.324	0.14884262
843.502	0.14889105
843.68	0.14889436
843.859	0.14897406
844.037	0.14903223
844.215	0.14896039
844.393	0.1490448
844.571	0.14908929
844.749	0.14918332
844.927	0.14928566
845.105	0.14934021
845.283	0.14950126
845.461	0.14970297
845.639	0.14970654
845.817	0.14966768
845.995	0.14964684
846.173	0.1495565
846.351	0.14947942
846.529	0.1493511
846.706	0.14924981
846.884	0.14926976
847.062	0.14925334
847.24	0.14930697
847.418	0.14930347
847.595	0.14920791
847.773	0.1491645
847.951	0.14908982
848.129	0.14908782
848.306	0.14920045
848.484	0.14907182
848.662	0.14906695
848.839	0.14915408
849.017	0.14916301
849.194	0.14909348
849.372	0.14899098
849.549	0.14893581
849.727	0.14893035
849.905	0.14896765
850.082	0.1489706
850.26	0.14900762
850.437	0.1491741
850.614	0.14928445
850.792	0.14925025
850.969	0.14931523
851.147	0.14933793
851.324	0.14940236
851.501	0.14943923
851.679	0.14960332
851.856	0.14961258
852.033	0.14975801
852.211	0.14977191
852.388	0.14968226
852.565	0.14962974
852.742	0.14965384
852.92	0.14942767
853.097	0.1492704
853.274	0.14908726
853.451	0.14906334
853.628	0.14914191
853.805	0.14915163
853.982	0.14912958
854.159	0.14925811
854.336	0.14942352
854.514	0.14941623
854.691	0.14935794
854.868	0.14929575
855.045	0.14923294
855.221	0.14919239
855.398	0.1489031
855.575	0.14872006
855.752	0.14868259
855.929	0.14871216
856.106	0.14867713
856.283	0.14870168
856.46	0.14864441
856.637	0.14879913
856.813	0.14884432
856.99	0.1488547
857.167	0.14891468
857.344	0.14888408
857.52	0.14880931
857.697	0.14865253
857.874	0.14858495
858.05	0.14852115
858.227	0.14845196
858.404	0.14835249
858.58	0.148325
858.757	0.14835609
858.933	0.14847754
859.11	0.14846044
859.287	0.14837706
859.463	0.14825844
859.64	0.14817071
859.816	0.14807737
859.993	0.14805629
860.169	0.14804202
860.345	0.14810286
860.522	0.14819452
860.698	0.14836108
860.875	0.14840176
861.051	0.14845696
861.227	0.1483646
861.404	0.14831947
861.58	0.1481554
861.756	0.148122
861.932	0.14802889
862.109	0.14788837
862.285	0.1478665
862.461	0.14795678
862.637	0.14796471
862.813	0.14804929
862.99	0.1479974
863.166	0.14801469
863.342	0.14819927
863.518	0.14825548
863.694	0.14816797
863.87	0.14809706
864.046	0.14799319
864.222	0.14786847
864.398	0.14777334
864.574	0.14744746
864.75	0.14719715
864.926	0.14723517
865.102	0.14715657
865.278	0.14706261
865.454	0.14703854
865.63	0.14695413
865.805	0.14704399
865.981	0.14715805
866.157	0.14707822
866.333	0.14705589
866.509	0.1470771
866.684	0.14710488
866.86	0.14717315
867.036	0.1470162
867.212	0.14690802
867.387	0.14684664
867.563	0.14686787
867.739	0.14672862
867.914	0.14663594
868.09	0.1465135
868.265	0.14657746
868.441	0.14650759
868.617	0.14635142
868.792	0.14618225
868.968	0.14612408
869.143	0.14623411
869.319	0.14629275
869.494	0.14625082
869.67	0.14624489
869.845	0.14629037
870.02	0.14626928
870.196	0.14626718
870.371	0.1459943
870.546	0.14573864
870.722	0.14560942
870.897	0.14548034
871.072	0.14531445
871.248	0.14513734
871.423	0.14500809
871.598	0.14502307
871.773	0.14489912
871.949	0.14485241
872.124	0.14484109
872.299	0.14475215
872.474	0.14481659
872.649	0.1447966
872.824	0.14467188
872.999	0.14475816
873.174	0.14474091
873.349	0.14459696
873.524	0.14455583
873.699	0.14461732
873.874	0.14456263
874.049	0.14461396
874.224	0.14455487
874.399	0.14450226
874.574	0.14444347
874.749	0.14437013
874.924	0.14403438
875.099	0.14389495
875.274	0.14362739
875.449	0.14352772
875.623	0.14341895
875.798	0.14342782
875.973	0.1434179
876.148	0.14334961
876.322	0.14336885
876.497	0.14342359
876.672	0.14338399
876.846	0.1431693
877.021	0.14294215
877.196	0.14281395
877.37	0.14288908
877.545	0.14282794
877.72	0.14277902
877.894	0.14264169
878.069	0.14258141
878.243	0.14258366
878.418	0.14251204
878.592	0.14229749
878.767	0.14204712
878.941	0.14188247
879.116	0.14171402
879.29	0.14167986
879.464	0.14153951
879.639	0.14128674
879.813	0.14125266
879.987	0.14121116
880.162	0.14109118
880.336	0.14104249
880.51	0.14092134
880.685	0.14076912
880.859	0.14090021
881.033	0.1407367
881.207	0.14057594
881.381	0.14047327
881.556	0.14034079
881.73	0.14027426
881.904	0.14031338
882.078	0.14006533
882.252	0.13994443
882.426	0.13989545
882.6	0.13984512
882.774	0.13983406
882.948	0.13978542
883.122	0.13968333
883.296	0.13978084
883.47	0.13986381
883.644	0.13987091
883.818	0.1397858
883.992	0.13967484
884.166	0.13961815
884.34	0.13961969
884.514	0.13961946
884.687	0.13955795
884.861	0.13943326
885.035	0.13945633
885.209	0.13952945
885.382	0.13949084
885.556	0.13933615
885.73	0.13902924
885.904	0.13893301
886.077	0.13878018
886.251	0.13861118
886.425	0.13855532
886.598	0.13850597
886.772	0.13829082
886.945	0.13821433
887.119	0.1380014
887.292	0.13795912
887.466	0.13790729
887.64	0.13760074
887.813	0.13727367
887.986	0.13711013
888.16	0.13702834
888.333	0.13695333
888.507	0.13688453
888.68	0.13666149
888.854	0.1365528
889.027	0.1365201
889.2	0.13665136
889.374	0.13656195
889.547	0.1366314
889.72	0.13664742
889.893	0.13658868
890.067	0.13654149
890.24	0.13649373
890.413	0.13643637
890.586	0.13633317
890.759	0.13614176
890.933	0.1359331
891.106	0.13592744
891.279	0.13587412
891.452	0.13580248
891.625	0.13561262
891.798	0.13543353
891.971	0.13519863
892.144	0.13499804
892.317	0.1348345
892.49	0.13458583
892.663	0.13448571
892.836	0.13430052
893.009	0.13419327
893.182	0.13412727
893.355	0.1340478
893.527	0.13392984
893.7	0.1339621
893.873	0.13383342
894.046	0.13375102
894.219	0.13372413
894.391	0.13363896
894.564	0.1334741
894.737	0.13324909
894.91	0.13303856
895.082	0.13289911
895.255	0.13274141
895.428	0.13258758
895.6	0.1324554
895.773	0.13235971
895.945	0.13236834
896.118	0.13227605
896.291	0.1321133
896.463	0.13197309
896.636	0.13180333
896.808	0.13166293
896.981	0.13161506
897.153	0.13148943
897.326	0.1314361
897.498	0.13129572
897.67	0.1311782
897.843	0.13115322
898.015	0.13113125
898.187	0.13098809
898.36	0.13084191
898.532	0.1307162
898.704	0.13074884
898.877	0.13072006
899.049	0.1306137
899.221	0.13050655
899.393	0.13044039
899.566	0.13031229
899.738	0.13023382
899.91	0.13006589
900.082	0.12996874
900.254	0.1298172
900.426	0.1296388
900.598	0.12950768
900.77	0.12942338
900.942	0.12916235
901.114	0.12901683
901.286	0.12893932
901.458	0.12872306
901.63	0.12867273
901.802	0.12852416
901.974	0.1284121
902.146	0.1283235
902.318	0.12828772
902.49	0.1280721
902.662	0.12803684
902.834	0.12788365
903.005	0.1279069
903.177	0.12776067
903.349	0.12779453
903.521	0.12764053
903.693	0.1276128
903.864	0.12747958
904.036	0.12733145
904.208	0.12702783
904.379	0.1268316
904.551	0.12657953
904.723	0.12636739
904.894	0.1261076
905.066	0.12601378
905.237	0.12594946
905.409	0.12599449
905.58	0.12601024
905.752	0.12575388
905.923	0.12559
906.095	0.12537225
906.266	0.12507169
906.438	0.12471447
906.609	0.12441551
906.78	0.12412538
906.952	0.12411558
907.123	0.12396386
907.295	0.12390749
907.466	0.12388313
907.637	0.12393519
907.808	0.12375243
907.98	0.12353164
908.151	0.1232011
908.322	0.12305282
908.493	0.12297819
908.665	0.12270435
908.836	0.1226071
909.007	0.12255769
909.178	0.12253435
909.349	0.12257909
909.52	0.12253987
909.691	0.12225875
909.862	0.1222668
910.033	0.12193431
910.204	0.12172405
910.375	0.12153057
910.546	0.12131453
910.717	0.12102358
910.888	0.1209172
911.059	0.12065369
911.23	0.12063026
911.401	0.12050963
911.572	0.12039723
911.742	0.12023592
911.913	0.12022042
912.084	0.12015829
912.255	0.12004096
912.426	0.11987287
912.596	0.11977846
912.767	0.11978491
912.938	0.11981977
913.108	0.1197462
913.279	0.11966676
913.45	0.11972347
913.62	0.11973022
913.791	0.11976076
913.962	0.11974748
914.132	0.11960897
914.303	0.11956336
914.473	0.1194614
914.644	0.11938663
914.814	0.11920996
914.985	0.11908621
915.155	0.11880336
915.326	0.11862406
915.496	0.11829162
915.666	0.11801486
915.837	0.11777036
916.007	0.11758374
916.177	0.11727018
916.348	0.1171297
916.518	0.11700642
916.688	0.1169401
916.858	0.11688014
917.029	0.11672558
917.199	0.11644805
917.369	0.11629532
917.539	0.11600352
917.709	0.1158221
917.88	0.11557568
918.05	0.11534144
918.22	0.11515966
918.39	0.11499561
918.56	0.11498193
918.73	0.11501214
918.9	0.11491487
919.07	0.11489051
919.24	0.11491536
919.41	0.1149898
919.58	0.11491429
919.75	0.11474682
919.92	0.11444789
920.09	0.1142126
920.26	0.11401488
920.429	0.11370774
920.599	0.11331502
920.769	0.11324898
920.939	0.11305012
921.109	0.11298335
921.278	0.11284977
921.448	0.11268519
921.618	0.11259066
921.787	0.11251116
921.957	0.11223195
922.127	0.11201319
922.296	0.1118359
922.466	0.11169214
922.636	0.11168132
922.805	0.11167265
922.975	0.11153044
923.144	0.11158828
923.314	0.11160765
923.483	0.11156452
923.653	0.11160244
923.822	0.11152755
923.992	0.11137261
924.161	0.11137324
924.331	0.11116687
924.5	0.1109877
924.669	0.11088555
924.839	0.11067779
925.008	0.11033827
925.177	0.11006993
925.347	0.10987679
925.516	0.10987305
925.685	0.10965188
925.854	0.10946827
926.023	0.10941037
926.193	0.10941368
926.362	0.10918519
926.531	0.1089346
926.7	0.10847913
926.869	0.10829087
927.038	0.10804692
927.207	0.10765232
927.376	0.10733147
927.545	0.10732367
927.715	0.10711556
927.884	0.10698265
928.052	0.10685912
928.221	0.10659973
928.39	0.10661607
928.559	0.10642118
928.728	0.10617937
928.897	0.10616493
929.066	0.10625777
929.235	0.10606512
929.404	0.10602531
929.572	0.10566987
929.741	0.10556745
929.91	0.10547261
930.079	0.10512229
930.247	0.10482657
930.416	0.10472275
930.585	0.10447037
930.753	0.10436129
930.922	0.10425771
931.091	0.10427544
931.259	0.10421107
931.428	0.10409133
931.596	0.10401304
931.765	0.10400768
931.934	0.10401171
932.102	0.10384573
932.27	0.10353639
932.439	0.10347165
932.607	0.10336668
932.776	0.10337645
932.944	0.10336021
933.113	0.10347745
933.281	0.10369866
933.449	0.10379624
933.618	0.1039127
933.786	0.10401273
933.954	0.1040106
934.123	0.10410313
934.291	0.10401115
934.459	0.10392847
934.627	0.1038662
934.795	0.10381048
934.964	0.10368885
935.132	0.10345051
935.3	0.10328504
935.468	0.1030987
935.636	0.10303206
935.804	0.10297855
935.972	0.10280027
936.14	0.1028583
936.308	0.10302343
936.476	0.10302027
936.644	0.10296725
936.812	0.10274229
936.98	0.10268699
937.148	0.10266848
937.316	0.102578
937.484	0.10255631
937.652	0.10269419
937.82	0.10304418
937.987	0.10336442
938.155	0.10359588
938.323	0.10378936
938.491	0.10378181
938.658	0.10417841
938.826	0.10411044
938.994	0.10410856
939.162	0.10395529
939.329	0.10431021
939.497	0.10514308
939.665	0.10559935
939.832	0.10588153
940	0.10649322
940.167	0.10692341
940.335	0.10708006
940.502	0.10718639
940.67	0.10707993
940.837	0.10794949
941.005	0.10815168
941.172	0.10840977
941.34	0.10851666
941.507	0.11019506
941.674	0.1109442
941.842	0.11108094
942.009	0.1108617
942.177	0.11043314
942.344	0.11112373
942.511	0.11161381
942.678	0.11103918
942.846	0.11134836
943.013	0.1111276
943.18	0.11111325
943.347	0.11169794
943.514	0.11131307
943.682	0.11156597
943.849	0.11082189
944.016	0.10995809
944.183	0.11023974
944.35	0.11025265
944.517	0.11076517
944.684	0.11060082
944.851	0.10865227
945.018	0.10910898
945.185	0.10903063
945.352	0.10919946
945.519	0.10954045
945.686	0.10923755
945.853	0.10932346
946.02	0.1098339
946.187	0.10927134
946.353	0.10941561
946.52	0.10911644
946.687	0.10776899
946.854	0.10766306
947.021	0.10691042
947.187	0.10717362
947.354	0.10656448
947.521	0.10565292
947.687	0.10488153
947.854	0.10493731
948.021	0.1037537
948.187	0.10363626
948.354	0.1026967
948.52	0.10220353
948.687	0.10195993
948.854	0.10172056
949.02	0.10087757
949.187	0.100993
949.353	0.10048959
949.52	0.09996762
949.686	0.09988204
949.852	0.09952856
950.019	0.09953671
950.185	0.09949945
950.352	0.0983398
950.518	0.09710617
950.684	0.09733192
950.851	0.09697178
951.017	0.0965273
951.183	0.09539021
951.349	0.09488704
951.516	0.09376477
951.682	0.09366566
951.848	0.0924006
952.014	0.09169387
952.18	0.09130878
952.346	0.09088905
952.512	0.09033205
952.679	0.09079107
952.845	0.0905204
953.011	0.09034313
953.177	0.0905169
953.343	0.08963477
953.509	0.08945154
953.675	0.08889533
953.841	0.08858601
954.007	0.08836233
954.172	0.0883018
954.338	0.08761649
954.504	0.0873887
954.67	0.08688013
954.836	0.08706594
955.002	0.08688276
955.167	0.08655933
955.333	0.08603298
955.499	0.08583603
955.665	0.08578664
955.83	0.08585811
955.996	0.0855837
956.162	0.08514389
956.327	0.08492443
956.493	0.08483168
956.659	0.08432115
956.824	0.08404505
956.99	0.08326922
957.155	0.08284978
957.321	0.08247123
957.486	0.08228771
957.652	0.08196781
957.817	0.08228173
957.983	0.08203782
958.148	0.08213919
958.314	0.08185258
958.479	0.08148902
958.644	0.08084411
958.81	0.08046033
958.975	0.07968345
959.14	0.07966135
959.306	0.07930251
959.471	0.07900532
959.636	0.07880995
959.801	0.07877976
959.967	0.07856892
960.132	0.07856104
960.297	0.0779521
960.462	0.07775182
960.627	0.07737522
960.792	0.07704919
960.957	0.07682998
961.123	0.07707035
961.288	0.07663274
961.453	0.0767086
961.618	0.07673626
961.783	0.07692385
961.948	0.0768387
962.113	0.07701615
962.277	0.07673486
962.442	0.07693262
962.607	0.07694662
962.772	0.07683167
962.937	0.07666748
963.102	0.07673298
963.267	0.07661858
963.431	0.07647458
963.596	0.07632982
963.761	0.0757799
963.926	0.07571386
964.09	0.07556415
964.255	0.07573637
964.42	0.07537452
964.584	0.07533607
964.749	0.07510717
964.914	0.07538215
965.078	0.0753105
965.243	0.07498788
965.407	0.0744264
965.572	0.07416958
965.736	0.07392932
965.901	0.07376335
966.065	0.07365391
966.23	0.0733127
966.394	0.07324828
966.559	0.07328912
966.723	0.07310349
966.887	0.07283955
967.052	0.07267079
967.216	0.07217972
967.38	0.07185934
967.545	0.07183392
967.709	0.07175731
967.873	0.07237073
968.037	0.07231006
968.202	0.0721283
968.366	0.07225482
968.53	0.07222775
968.694	0.0719724
968.858	0.07186833
969.022	0.07117086
969.187	0.07077157
969.351	0.07072874
969.515	0.07069379
969.679	0.07062569
969.843	0.07088927
970.007	0.07031472
970.171	0.07019805
970.335	0.0703862
970.499	0.07029817
970.662	0.06991588
970.826	0.06961655
970.99	0.06923054
971.154	0.06949299
971.318	0.06932545
971.482	0.06894358
971.645	0.06875894
971.809	0.06859784
971.973	0.06871456
972.137	0.0684753
972.3	0.06825757
972.464	0.06851329
972.628	0.06873975
972.791	0.06871573
972.955	0.06894163
973.119	0.06888492
973.282	0.06919146
973.446	0.06931276
973.609	0.06901831
973.773	0.06890592
973.936	0.06880112
974.1	0.06861766
974.263	0.06862838
974.427	0.0683748
974.59	0.06793193
974.754	0.0678841
974.917	0.06781857
975.08	0.067753
975.244	0.06772643
975.407	0.06733
975.57	0.06692055
975.734	0.06689494
975.897	0.06663479
976.06	0.06637839
976.223	0.06611421
976.387	0.06580777
976.55	0.06576122
976.713	0.06567741
976.876	0.06558226
977.039	0.06525869
977.202	0.06511142
977.365	0.06494985
977.528	0.06476338
977.692	0.06463074
977.855	0.06463814
978.018	0.06466579
978.181	0.06477972
978.344	0.0647017
978.506	0.06481101
978.669	0.06482641
978.832	0.06479148
978.995	0.06470964
979.158	0.06455576
979.321	0.06446286
979.484	0.06445272
979.646	0.06423563
979.809	0.06438834
979.972	0.06463414
980.135	0.06466691
980.297	0.06454504
980.46	0.06428344
980.623	0.06419882
980.786	0.06424206
980.948	0.06394355
981.111	0.06341295
981.273	0.06327163
981.436	0.06289423
981.599	0.06269538
981.761	0.06246303
981.924	0.06252172
982.086	0.06228108
982.249	0.06214744
982.411	0.06198256
982.573	0.06227922
982.736	0.06243109
982.898	0.0623361
983.061	0.06192399
983.223	0.06171746
983.385	0.06147803
983.548	0.06158395
983.71	0.06151639
983.872	0.06142204
984.034	0.06133614
984.197	0.06140108
984.359	0.06155374
984.521	0.06204621
984.683	0.06208266
984.845	0.06215182
985.008	0.06240918
985.17	0.0625081
985.332	0.06256005
985.494	0.06228679
985.656	0.06191288
985.818	0.06138722
985.98	0.06081793
986.142	0.06032725
986.304	0.06037542
986.466	0.06045566
986.628	0.06034753
986.79	0.0603124
986.952	0.06041725
987.113	0.06053821
987.275	0.06049406
987.437	0.06030067
987.599	0.05983068
987.761	0.05999006
987.922	0.05977926
988.084	0.0596563
988.246	0.05946123
988.408	0.05924011
988.569	0.05911582
988.731	0.05881362
988.893	0.05868363
989.054	0.05874351
989.216	0.05842372
989.377	0.05817495
989.539	0.05838379
989.701	0.05835758
989.862	0.05808488
990.024	0.05779455
990.185	0.05743064
990.347	0.05753148
990.508	0.05764445
990.669	0.05709814
990.831	0.05661646
990.992	0.05669759
991.154	0.05677287
991.315	0.05689145
991.476	0.05654849
991.638	0.05639986
991.799	0.05654824
991.96	0.05677536
992.121	0.05689305
992.283	0.0566555
992.444	0.05659233
992.605	0.05674166
992.766	0.05662556
992.927	0.05643734
993.088	0.05582741
993.249	0.05555813
993.41	0.05535945
993.572	0.055142
993.733	0.05525956
993.894	0.05512571
994.055	0.05487578
994.216	0.0550425
994.376	0.05497467
994.537	0.0548204
994.698	0.05476985
994.859	0.0546688
995.02	0.05470599
995.181	0.05463273
995.342	0.05439214
995.503	0.05422359
995.663	0.05453529
995.824	0.05439827
995.985	0.05440122
996.146	0.05459946
996.306	0.05485987
996.467	0.05508744
996.628	0.05514801
996.788	0.05473381
996.949	0.05490706
997.11	0.05466802
997.27	0.0543654
997.431	0.05426779
997.591	0.05402349
997.752	0.05394932
997.912	0.05437776
998.073	0.05392061
998.233	0.05378372
998.394	0.0536567
998.554	0.0533146
998.714	0.05346999
998.875	0.05346158
999.035	0.05321412
999.196	0.05333637
999.356	0.05300583
999.516	0.0531393
999.676	0.05349603
999.837	0.05326453
999.997	0.05317117
1000.157	0.05306332
1000.317	0.05308906
1000.477	0.05293363
1000.638	0.05263528
1000.798	0.05275749
1000.958	0.05340353
1001.118	0.05304599
1001.278	0.05277523
1001.438	0.05259216
1001.598	0.05271732
1001.758	0.05294765
1001.918	0.05218908
1002.078	0.05174922
1002.238	0.05172675
1002.398	0.05145836
1002.558	0.0517432
1002.718	0.05153963
1002.878	0.05065958
1003.037	0.05087759
1003.197	0.05078223
1003.357	0.05109526
1003.517	0.05145707
1003.677	0.05110591
1003.836	0.05109894
1003.996	0.05149102
1004.156	0.05187122
1004.315	0.05147928
1004.475	0.05194683
1004.635	0.05247172
1004.794	0.05296356
1004.954	0.05360102
1005.114	0.05329337
1005.273	0.05299769
1005.433	0.05332623
1005.592	0.05273083
1005.752	0.05210542
1005.911	0.05123519
1006.071	0.05064418
1006.23	0.05079645
1006.389	0.05105174
1006.549	0.05065816
1006.708	0.05090225
1006.868	0.05094293
1007.027	0.0507744
1007.186	0.05087225
1007.345	0.0511076
1007.505	0.0504009
1007.664	0.05086224
1007.823	0.05066526
1007.982	0.05063016
1008.142	0.05112755
1008.301	0.05161412
1008.46	0.05187727
1008.619	0.05211399
1008.778	0.05215272
1008.937	0.05161619
1009.096	0.05203702
1009.255	0.0519281
1009.414	0.0512365
1009.573	0.05115443
1009.732	0.05143226
1009.891	0.051013
1010.05	0.05162083
1010.209	0.05150581
1010.368	0.05129464
1010.527	0.05058005
1010.686	0.05028646
1010.845	0.05011494
1011.003	0.04943147
1011.162	0.04905417
1011.321	0.04815985
1011.48	0.04885372
1011.638	0.0490107
1011.797	0.04942903
1011.956	0.04935701
1012.115	0.04993318
1012.273	0.04977324
1012.432	0.04993702
1012.59	0.04852375
1012.749	0.04988108
1012.908	0.04959465
1013.066	0.04913865
1013.225	0.04977803
1013.383	0.05019656
1013.542	0.05015823
1013.7	0.0512776
1013.859	0.05047981
1014.017	0.05064415
1014.175	0.05099412
1014.334	0.05055727
1014.492	0.05107863
1014.65	0.05087426
1014.809	0.05103094
1014.967	0.05144027
1015.125	0.05101088
1015.284	0.0522031
1015.442	0.0516709
1015.6	0.050569
1015.758	0.05080772
1015.916	0.0499858
1016.075	0.04888139
1016.233	0.0494381
1016.391	0.04826369
1016.549	0.04848926
1016.707	0.04890435
1016.865	0.04934314
1017.023	0.04973393
1017.181	0.05008147
1017.339	0.04984629
1017.497	0.05079573
1017.655	0.05067225
1017.813	0.05066964
1017.971	0.05058152
1018.129	0.05103216
1018.286	0.05228048
1018.444	0.0524471
1018.602	0.05230871
1018.76	0.05296566
1018.918	0.05239541
1019.075	0.05407961
1019.233	0.0542744
1019.391	0.0537395
1019.549	0.05393263
1019.706	0.0532441
1019.864	0.05367828
1020.022	0.05530037
1020.179	0.05345504
1020.337	0.05320733
1020.494	0.05194479
1020.652	0.05072781
1020.809	0.05134138
1020.967	0.04956854
1021.124	0.04963983
1021.282	0.0510352
1021.439	0.05149192
1021.597	0.05263245
1021.754	0.05425361
1021.911	0.05439729
1022.069	0.05545303
1022.226	0.05502703
1022.384	0.05365467
1022.541	0.05395273
1022.698	0.05422311
1022.855	0.05386677
1023.013	0.0543755
1023.17	0.05542795
1023.327	0.0566422
1023.484	0.05862878
1023.641	0.05786332
1023.798	0.05834776
1023.956	0.05913911
1024.113	0.05858135
1024.27	0.05810099
1024.427	0.05744868
1024.584	0.0565542
1024.741	0.05640307
1024.898	0.05488103
1025.055	0.05418629
1025.212	0.05314981
1025.369	0.05117584
1025.525	0.05119231
1025.682	0.05101202
1025.839	0.05186934
1025.996	0.05409811
1026.153	0.05539197
1026.31	0.0553066
1026.466	0.05722571
1026.623	0.05825462
1026.78	0.05822252
1026.937	0.05770262
1027.093	0.05643094
1027.25	0.05475047
1027.407	0.05731652
1027.563	0.05653666
1027.72	0.05753351
1027.876	0.05740938
1028.033	0.05819307
1028.19	0.06075416
1028.346	0.06146453
1028.503	0.06213173
1028.659	0.06290601
1028.816	0.0628105
1028.972	0.06333009
1029.128	0.06473849
1029.285	0.0622893
1029.441	0.063337
1029.598	0.05907889
1029.754	0.06196009
1029.91	0.05906406
1030.067	0.06019282
1030.223	0.06003023
1030.379	0.0618938
1030.535	0.06291403
1030.691	0.06347509
1030.848	0.06048169
1031.004	0.06037949
1031.16	0.06208508
1031.316	0.06507754
1031.472	0.06472064
1031.628	0.06363763
1031.784	0.06831558
1031.94	0.07126687
1032.096	0.07397725
1032.252	0.07032574
1032.408	0.06923854
1032.564	0.06761374
1032.72	0.06676368
1032.876	0.06367331
1033.032	0.06191141
1033.188	0.05984747
1033.344	0.06456045
1033.5	0.06504666
1033.655	0.06734769
1033.811	0.06867531
1033.967	0.07279407
