Data from 1_mm_pl_0pc_Absorbance__0__16-33-08-823.txt Node

Date: Wed Mar 08 16:33:08 CET 2023
User: Ange
Spectrometer: FLMT08341
Trigger mode: 0
Integration Time (sec): 1.000000E-2
Scans to average: 400
Electric dark correction enabled: true
Nonlinearity correction enabled: false
Boxcar width: 3
XAxis mode: Wavelengths
Number of Pixels in Spectrum: 3648
>>>>>Begin Spectral Data<<<<<
345.271	-0.00965516
345.487	-0.02050098
345.704	-0.03035879
345.921	-0.01417427
346.137	-0.03032895
346.354	-0.01209301
346.571	-0.04024463
346.787	-0.1147515
347.004	-0.08401932
347.22	-0.17186275
347.437	-0.04404913
347.653	-0.15327354
347.87	0.01812118
348.086	-0.00919227
348.303	-0.42903776
348.519	0.32448223
348.736	0.32578441
348.952	0.3451594
349.169	0.37392342
349.385	0.39702171
349.601	0.39807296
349.818	0.39388681
350.034	0.39474983
350.251	0.39942478
350.467	0.40783907
350.683	0.3932191
350.9	0.39065575
351.116	0.39051441
351.332	0.3910403
351.549	0.40714665
351.765	0.42018899
351.981	0.42359646
352.197	0.44327058
352.414	0.4643704
352.63	0.47724206
352.846	0.4900161
353.062	0.48177864
353.278	0.47343957
353.495	0.48985823
353.711	0.49390861
353.927	0.49775094
354.143	0.50119542
354.359	0.49337926
354.575	0.48669446
354.792	0.50180895
355.008	0.48950582
355.224	0.48056378
355.44	0.47149491
355.656	0.46832053
355.872	0.47674638
356.088	0.51166552
356.304	0.51385534
356.52	0.5237612
356.736	0.53384549
356.952	0.54840995
357.168	0.5520972
357.384	0.56418374
357.6	0.54281805
357.816	0.55330162
358.032	0.56264524
358.248	0.58329519
358.464	0.58165327
358.679	0.59316876
358.895	0.59406795
359.111	0.60881968
359.327	0.59747017
359.543	0.60197532
359.759	0.6044521
359.974	0.60833669
360.19	0.60460618
360.406	0.6048784
360.622	0.60081861
360.838	0.60107478
361.053	0.60289348
361.269	0.60684215
361.485	0.61077641
361.701	0.61638348
361.916	0.61327331
362.132	0.61595533
362.348	0.62273507
362.563	0.62703206
362.779	0.61999781
362.995	0.62656927
363.21	0.63717961
363.426	0.64352168
363.641	0.64662506
363.857	0.65526978
364.073	0.6508228
364.288	0.64710817
364.504	0.65808206
364.719	0.65968888
364.935	0.65927025
365.15	0.66370884
365.366	0.66758951
365.581	0.68170725
365.797	0.69065992
366.012	0.68298734
366.228	0.67431605
366.443	0.69317431
366.658	0.69711748
366.874	0.68975916
367.089	0.69955783
367.305	0.70765738
367.52	0.71008896
367.735	0.71302633
367.951	0.70156056
368.166	0.70773876
368.381	0.72528987
368.597	0.71900537
368.812	0.72647847
369.027	0.73603085
369.243	0.74633158
369.458	0.77099467
369.673	0.77501046
369.888	0.7725371
370.104	0.76877441
370.319	0.77056173
370.534	0.76770398
370.749	0.77092537
370.964	0.76741866
371.179	0.76623462
371.395	0.7652538
371.61	0.77602265
371.825	0.76568033
372.04	0.76857515
372.255	0.76138767
372.47	0.75483437
372.685	0.74695373
372.9	0.74892699
373.115	0.74095802
373.33	0.75077459
373.545	0.75618332
373.76	0.76917143
373.975	0.7707256
374.19	0.77541726
374.405	0.78161311
374.62	0.80080822
374.835	0.81470784
375.05	0.81752196
375.265	0.81732945
375.48	0.82346102
375.695	0.84578161
375.91	0.84170309
376.125	0.82703616
376.339	0.81142635
376.554	0.81364093
376.769	0.81724088
376.984	0.81717811
377.199	0.82030283
377.414	0.82089907
377.628	0.8368902
377.843	0.84992486
378.058	0.85324431
378.273	0.86245215
378.487	0.86762431
378.702	0.86947066
378.917	0.87577001
379.131	0.86989667
379.346	0.86215076
379.561	0.86129429
379.775	0.85626809
379.99	0.85247122
380.205	0.84202828
380.419	0.83735001
380.634	0.82681828
380.848	0.83748805
381.063	0.84086503
381.278	0.84937041
381.492	0.84479597
381.707	0.86020593
381.921	0.86355392
382.136	0.88457645
382.35	0.87829034
382.565	0.87468499
382.779	0.87798421
382.994	0.88991243
383.208	0.8803656
383.422	0.8950036
383.637	0.89348354
383.851	0.90753671
384.066	0.91888575
384.28	0.92397048
384.494	0.92780385
384.709	0.93917281
384.923	0.9389061
385.137	0.93451508
385.352	0.93550474
385.566	0.94392828
385.78	0.94276293
385.995	0.94084709
386.209	0.93573726
386.423	0.94368692
386.637	0.95296484
386.852	0.9453751
387.066	0.94014757
387.28	0.93405076
387.494	0.94538664
387.708	0.95065904
387.923	0.94753881
388.137	0.95600604
388.351	0.96705959
388.565	0.97569424
388.779	0.98498215
388.993	1.00041564
389.207	1.00778672
389.421	1.01483924
389.635	1.0096369
389.85	1.0065656
390.064	1.00647169
390.278	1.01239024
390.492	1.00864535
390.706	1.0099305
390.92	1.01198115
391.134	1.02511368
391.348	1.04723321
391.561	1.04706395
391.775	1.04559383
391.989	1.0383461
392.203	1.04868348
392.417	1.05442352
392.631	1.06529083
392.845	1.05617611
393.059	1.07217538
393.273	1.07319766
393.486	1.06927744
393.7	1.05546917
393.914	1.06251356
394.128	1.0546738
394.342	1.05092097
394.555	1.03584312
394.769	1.03743412
394.983	1.04674704
395.197	1.05954501
395.41	1.05881734
395.624	1.06490355
395.838	1.06925626
396.051	1.09274991
396.265	1.0932653
396.479	1.10256981
396.692	1.10531129
396.906	1.102593
397.12	1.09991045
397.333	1.10930561
397.547	1.10312324
397.76	1.11788624
397.974	1.1195974
398.187	1.1262306
398.401	1.13846105
398.614	1.14501217
398.828	1.14822902
399.041	1.15247854
399.255	1.14838764
399.468	1.14902856
399.682	1.14927205
399.895	1.15438047
400.109	1.15412856
400.322	1.15207597
400.536	1.14163214
400.749	1.15586828
400.962	1.15825566
401.176	1.15658876
401.389	1.15186139
401.602	1.14199842
401.816	1.15043625
402.029	1.16605788
402.242	1.15878013
402.456	1.15897163
402.669	1.15337899
402.882	1.14165998
403.095	1.15921181
403.309	1.15810771
403.522	1.16059721
403.735	1.15856569
403.948	1.16244215
404.161	1.18784139
404.375	1.20219552
404.588	1.202446
404.801	1.20774282
405.014	1.20606404
405.227	1.2196048
405.44	1.22542064
405.653	1.22670313
405.866	1.22100361
406.079	1.22100521
406.293	1.21918663
406.506	1.22277193
406.719	1.22341299
406.932	1.22209784
407.145	1.21131289
407.358	1.23079154
407.571	1.22500263
407.784	1.23324517
407.996	1.23636919
408.209	1.22617835
408.422	1.2221864
408.635	1.22742688
408.848	1.22469557
409.061	1.22136885
409.274	1.21810116
409.487	1.21617269
409.7	1.22352881
409.912	1.23231042
410.125	1.2341843
410.338	1.23525778
410.551	1.23958734
410.764	1.24165856
410.976	1.24425439
411.189	1.24634236
411.402	1.24023421
411.615	1.24515504
411.827	1.24769699
412.04	1.25365258
412.253	1.25158792
412.465	1.25004742
412.678	1.24701579
412.891	1.2570994
413.103	1.242944
413.316	1.23848511
413.529	1.24675094
413.741	1.25665122
413.954	1.26268346
414.166	1.26666227
414.379	1.26263725
414.591	1.27483242
414.804	1.27342755
415.016	1.2677614
415.229	1.26114816
415.441	1.25460414
415.654	1.26089663
415.866	1.26432959
416.079	1.26795127
416.291	1.26844018
416.504	1.27876365
416.716	1.28237423
416.928	1.28782346
417.141	1.28160623
417.353	1.28488484
417.566	1.27331236
417.778	1.27675186
417.99	1.26040211
418.203	1.25202211
418.415	1.25152899
418.627	1.25499012
418.839	1.25251337
419.052	1.26833852
419.264	1.26870565
419.476	1.27776921
419.688	1.28535951
419.901	1.28473431
420.113	1.28126841
420.325	1.27956886
420.537	1.26702791
420.749	1.27067757
420.961	1.27122476
421.174	1.26695026
421.386	1.26444765
421.598	1.26507525
421.81	1.2643815
422.022	1.26427156
422.234	1.26312366
422.446	1.258779
422.658	1.25854628
422.87	1.26192681
423.082	1.25994677
423.294	1.25696511
423.506	1.25911737
423.718	1.2551418
423.93	1.24998554
424.142	1.24610511
424.354	1.23939599
424.566	1.2389206
424.778	1.23992923
424.99	1.23759814
425.202	1.23338826
425.414	1.23733
425.625	1.24262843
425.837	1.23683178
426.049	1.23839779
426.261	1.23337731
426.473	1.22697085
426.684	1.22678556
426.896	1.22585707
427.108	1.21817641
427.32	1.22380283
427.531	1.21837247
427.743	1.21765141
427.955	1.22508605
428.167	1.21982665
428.378	1.21681964
428.59	1.21654945
428.802	1.21286725
429.013	1.20784398
429.225	1.20364
429.436	1.19545992
429.648	1.19737157
429.86	1.19648575
430.071	1.19524581
430.283	1.19382332
430.494	1.19168908
430.706	1.19054287
430.917	1.18615687
431.129	1.18262806
431.34	1.17783199
431.552	1.17682896
431.763	1.17058008
431.975	1.17212532
432.186	1.16460054
432.398	1.16259807
432.609	1.15214811
432.821	1.14940322
433.032	1.14384244
433.243	1.14017577
433.455	1.13459267
433.666	1.13495782
433.877	1.13555878
434.089	1.13210112
434.3	1.12492761
434.511	1.11707306
434.723	1.1130818
434.934	1.10505438
435.145	1.09566159
435.356	1.08657769
435.568	1.08483365
435.779	1.08075464
435.99	1.07516044
436.201	1.07019163
436.412	1.06650845
436.624	1.0671545
436.835	1.06564594
437.046	1.06496904
437.257	1.06179627
437.468	1.06453923
437.679	1.06407595
437.89	1.0618085
438.101	1.05915459
438.312	1.05521918
438.523	1.04927925
438.734	1.04574753
438.945	1.03915903
439.156	1.03095037
439.367	1.02733025
439.578	1.02303761
439.789	1.01536363
440	1.01147819
440.211	1.00480621
440.422	1.00089261
440.633	0.9989235
440.844	0.99157907
441.055	0.98525404
441.266	0.98312193
441.477	0.97613466
441.687	0.97261549
441.898	0.96764267
442.109	0.96043332
442.32	0.9568535
442.531	0.94952804
442.741	0.94066754
442.952	0.9358432
443.163	0.93099624
443.374	0.9243039
443.584	0.91953925
443.795	0.91453792
444.006	0.91100466
444.216	0.90740678
444.427	0.90072341
444.638	0.89417768
444.848	0.88874976
445.059	0.88349039
445.27	0.87715016
445.48	0.87094505
445.691	0.86594716
445.901	0.86170927
446.112	0.85695751
446.323	0.8508095
446.533	0.84491312
446.744	0.83892696
446.954	0.83342904
447.165	0.82781549
447.375	0.82362617
447.586	0.81927229
447.796	0.81510363
448.006	0.80972339
448.217	0.80582868
448.427	0.80062046
448.638	0.79423408
448.848	0.78735226
449.058	0.7809272
449.269	0.77514467
449.479	0.77002599
449.689	0.76420338
449.9	0.7593164
450.11	0.7544745
450.32	0.75043923
450.531	0.74449884
450.741	0.73887071
450.951	0.7338918
451.161	0.72824836
451.372	0.72293482
451.582	0.72001516
451.792	0.71414511
452.002	0.7091143
452.212	0.70366365
452.422	0.69840136
452.633	0.6929556
452.843	0.68828937
453.053	0.68027083
453.263	0.675634
453.473	0.67058095
453.683	0.66633893
453.893	0.66046478
454.103	0.65649932
454.313	0.65099509
454.523	0.64643735
454.733	0.64116822
454.943	0.63705933
455.153	0.6324335
455.363	0.62784584
455.573	0.62274674
455.783	0.61829463
455.993	0.61329261
456.203	0.60907149
456.413	0.60405746
456.623	0.5986778
456.833	0.59489936
457.042	0.59001413
457.252	0.58530213
457.462	0.58075333
457.672	0.57623306
457.882	0.57162416
458.091	0.56709091
458.301	0.56185163
458.511	0.55748527
458.721	0.55275881
458.931	0.54857808
459.14	0.5442209
459.35	0.54059023
459.56	0.53679765
459.769	0.53307495
459.979	0.52870333
460.189	0.52465603
460.398	0.52019626
460.608	0.51641519
460.817	0.51195401
461.027	0.50775726
461.237	0.50343424
461.446	0.4994342
461.656	0.49603941
461.865	0.49215514
462.075	0.48794915
462.284	0.48436289
462.494	0.48039041
462.703	0.47623757
462.913	0.47259387
463.122	0.46847952
463.332	0.46483894
463.541	0.46155084
463.751	0.45762611
463.96	0.45423592
464.169	0.45102706
464.379	0.44790762
464.588	0.44450564
464.797	0.44128
465.007	0.43790862
465.216	0.43478743
465.425	0.43164173
465.635	0.42849025
465.844	0.42512733
466.053	0.42206555
466.263	0.41896564
466.472	0.41549886
466.681	0.41220301
466.89	0.40893404
467.099	0.40562717
467.309	0.40254833
467.518	0.39954599
467.727	0.39636948
467.936	0.39340257
468.145	0.39061899
468.354	0.3879078
468.563	0.3850415
468.772	0.38207337
468.982	0.37915503
469.191	0.3766262
469.4	0.37394574
469.609	0.37124981
469.818	0.36881947
470.027	0.36636341
470.236	0.36380721
470.445	0.36132865
470.654	0.3586347
470.863	0.35598661
471.072	0.35355223
471.28	0.35075006
471.489	0.34848568
471.698	0.34618955
471.907	0.34389619
472.116	0.34175846
472.325	0.33965761
472.534	0.33758048
472.743	0.33537594
472.951	0.33335822
473.16	0.33139856
473.369	0.32946837
473.578	0.32760976
473.786	0.32581872
473.995	0.32370326
474.204	0.32192518
474.413	0.31990523
474.621	0.31795822
474.83	0.31620641
475.039	0.31432778
475.247	0.31252464
475.456	0.31085632
475.665	0.30921343
475.873	0.30747526
476.082	0.30563307
476.291	0.30397913
476.499	0.30243466
476.708	0.30059787
476.916	0.29910247
477.125	0.29763763
477.333	0.29622934
477.542	0.29486287
477.75	0.29333367
477.959	0.29194717
478.167	0.29073907
478.376	0.28923687
478.584	0.28773492
478.793	0.2863976
479.001	0.28507649
479.209	0.28380698
479.418	0.28244562
479.626	0.28117213
479.834	0.28000433
480.043	0.27888574
480.251	0.27768825
480.459	0.27664644
480.668	0.27560451
480.876	0.27463505
481.084	0.27359504
481.293	0.27267562
481.501	0.27158388
481.709	0.27064931
481.917	0.26968691
482.125	0.26879847
482.334	0.26795672
482.542	0.26709762
482.75	0.26615536
482.958	0.26544321
483.166	0.26465669
483.374	0.26375959
483.583	0.26306657
483.791	0.26239307
483.999	0.26164839
484.207	0.26102717
484.415	0.26042881
484.623	0.25973309
484.831	0.25925468
485.039	0.25858377
485.247	0.25789128
485.455	0.25729916
485.663	0.25670778
485.871	0.25608736
486.079	0.25553471
486.287	0.25508778
486.495	0.25459824
486.702	0.25418106
486.91	0.25381187
487.118	0.25340668
487.326	0.2530841
487.534	0.25280822
487.742	0.25249625
487.95	0.25226455
488.157	0.25198796
488.365	0.25179222
488.573	0.25159824
488.781	0.25138167
488.988	0.25119378
489.196	0.25097428
489.404	0.25075874
489.612	0.2505673
489.819	0.25039906
490.027	0.25020139
490.235	0.2500095
490.442	0.24987276
490.65	0.24971216
490.857	0.24966251
491.065	0.24958317
491.273	0.24958598
491.48	0.24960888
491.688	0.2496814
491.895	0.24969672
492.103	0.249782
492.31	0.24983115
492.518	0.25005442
492.725	0.25015239
492.933	0.25029339
493.14	0.25038193
493.348	0.25053986
493.555	0.25066478
493.763	0.25090277
493.97	0.25098163
494.177	0.25120637
494.385	0.25151114
494.592	0.25183187
494.8	0.25206794
495.007	0.25236955
495.214	0.25262607
495.422	0.25289937
495.629	0.25319909
495.836	0.2534322
496.043	0.25375222
496.251	0.254161
496.458	0.2544897
496.665	0.25492378
496.872	0.25533959
497.08	0.25577028
497.287	0.25625287
497.494	0.25669654
497.701	0.25711016
497.908	0.25766715
498.115	0.25812543
498.322	0.25858629
498.53	0.25899555
498.737	0.2594462
498.944	0.25991516
499.151	0.2605411
499.358	0.26104227
499.565	0.26158535
499.772	0.262225
499.979	0.26283616
500.186	0.26352418
500.393	0.26419653
500.6	0.26474369
500.807	0.26543816
501.014	0.26611166
501.221	0.26674617
501.427	0.26745426
501.634	0.26814611
501.841	0.26876295
502.048	0.26946672
502.255	0.27002333
502.462	0.27079467
502.669	0.27157545
502.875	0.27232591
503.082	0.27298067
503.289	0.27381608
503.496	0.27463915
503.702	0.27544794
503.909	0.27617059
504.116	0.27695397
504.323	0.27775102
504.529	0.27869982
504.736	0.27950785
504.943	0.28032979
505.149	0.28125916
505.356	0.28218429
505.563	0.28311408
505.769	0.2841067
505.976	0.28498709
506.182	0.285981
506.389	0.28699446
506.595	0.28808805
506.802	0.28907665
507.008	0.29009455
507.215	0.29104939
507.421	0.2920148
507.628	0.29304303
507.834	0.29398275
508.041	0.29495137
508.247	0.29591817
508.454	0.2969217
508.66	0.29792705
508.866	0.29900206
509.073	0.30008474
509.279	0.30119757
509.486	0.30229346
509.692	0.30343073
509.898	0.30461461
510.105	0.30578455
510.311	0.3069342
510.517	0.30808795
510.723	0.30919666
510.93	0.3102506
511.136	0.31149735
511.342	0.31262326
511.548	0.31381564
511.754	0.31503933
511.961	0.31626678
512.167	0.31753949
512.373	0.31881816
512.579	0.32004516
512.785	0.32126188
512.991	0.32252052
513.197	0.32374447
513.404	0.32492677
513.61	0.32627398
513.816	0.32757746
514.022	0.32883582
514.228	0.33013432
514.434	0.33138406
514.64	0.3327387
514.846	0.33418577
515.052	0.33546856
515.258	0.33674142
515.464	0.33808733
515.669	0.33954113
515.875	0.34096895
516.081	0.34222786
516.287	0.34358803
516.493	0.34500084
516.699	0.34646233
516.905	0.34788082
517.111	0.34917871
517.316	0.35060859
517.522	0.35215166
517.728	0.35361039
517.934	0.35508298
518.139	0.35654591
518.345	0.3580334
518.551	0.35961632
518.757	0.36112682
518.962	0.36263506
519.168	0.3641347
519.374	0.36556565
519.579	0.36698223
519.785	0.368543
519.991	0.37006449
520.196	0.37155842
520.402	0.3730832
520.607	0.37463632
520.813	0.37635044
521.018	0.37806618
521.224	0.37954836
521.429	0.38122191
521.635	0.38288798
521.84	0.38449198
522.046	0.38615487
522.251	0.38770265
522.457	0.38928508
522.662	0.39097123
522.868	0.39259005
523.073	0.39416262
523.279	0.39575905
523.484	0.39729158
523.689	0.39898354
523.895	0.40068649
524.1	0.40236374
524.305	0.4040235
524.511	0.40570976
524.716	0.40751997
524.921	0.40927594
525.126	0.41103967
525.332	0.41283729
525.537	0.41455653
525.742	0.41635925
525.947	0.41823277
526.153	0.41992764
526.358	0.42176737
526.563	0.42350617
526.768	0.42526864
526.973	0.42704466
527.178	0.42882683
527.383	0.43060182
527.588	0.43243199
527.794	0.43419867
527.999	0.43604736
528.204	0.43786688
528.409	0.43968097
528.614	0.44158618
528.819	0.44345704
529.024	0.44534552
529.229	0.44715474
529.434	0.4491202
529.639	0.45096489
529.843	0.45298108
530.048	0.45484481
530.253	0.45673453
530.458	0.45865218
530.663	0.4605772
530.868	0.46248286
531.073	0.46439814
531.278	0.4662228
531.482	0.46807095
531.687	0.47004778
531.892	0.47196681
532.097	0.47387725
532.302	0.47582663
532.506	0.4777673
532.711	0.4797379
532.916	0.48174391
533.12	0.48368237
533.325	0.4856269
533.53	0.48771496
533.734	0.48974065
533.939	0.49183008
534.144	0.493993
534.348	0.49604483
534.553	0.49805895
534.757	0.50011755
534.962	0.50215101
535.167	0.5042317
535.371	0.50626115
535.576	0.50835296
535.78	0.51043963
535.985	0.51261399
536.189	0.514682
536.394	0.5168483
536.598	0.51887098
536.803	0.52097817
537.007	0.52302504
537.211	0.5252452
537.416	0.52728524
537.62	0.52948773
537.825	0.53156767
538.029	0.5339751
538.233	0.53616284
538.438	0.53839235
538.642	0.54040631
538.846	0.5427318
539.05	0.54494943
539.255	0.54706001
539.459	0.54902514
539.663	0.55116277
539.867	0.55329831
540.072	0.55549347
540.276	0.5574991
540.48	0.5596756
540.684	0.56185119
540.888	0.56415462
541.092	0.56634258
541.297	0.56852311
541.501	0.57075324
541.705	0.57312857
541.909	0.57528978
542.113	0.57744227
542.317	0.57966372
542.521	0.58188859
542.725	0.58418877
542.929	0.58642046
543.133	0.58860356
543.337	0.59093243
543.541	0.59321001
543.745	0.59538311
543.949	0.59765723
544.153	0.59975631
544.357	0.60195849
544.56	0.60423502
544.764	0.60646948
544.968	0.60875414
545.172	0.61092377
545.376	0.61327652
545.58	0.61566088
545.783	0.61810631
545.987	0.62024452
546.191	0.62249014
546.395	0.62486409
546.598	0.62729055
546.802	0.62959207
547.006	0.63194396
547.21	0.6339661
547.413	0.63643814
547.617	0.63883293
547.821	0.64108717
548.024	0.64346213
548.228	0.64564038
548.431	0.64798317
548.635	0.65039251
548.839	0.65257146
549.042	0.65492966
549.246	0.65724369
549.449	0.65948145
549.653	0.66189578
549.856	0.66408509
550.06	0.66634873
550.263	0.6687881
550.467	0.67096962
550.67	0.67333678
550.874	0.6756276
551.077	0.67804484
551.28	0.68056662
551.484	0.68302476
551.687	0.68534175
551.891	0.68781068
552.094	0.69006122
552.297	0.6925659
552.501	0.69501681
552.704	0.69740691
552.907	0.69980217
553.11	0.70206856
553.314	0.704329
553.517	0.70661298
553.72	0.70889429
553.923	0.71117358
554.127	0.71345185
554.33	0.71554103
554.533	0.71794435
554.736	0.72010604
554.939	0.72253557
555.142	0.72491901
555.345	0.72728347
555.549	0.72980277
555.752	0.73234992
555.955	0.7347492
556.158	0.73738752
556.361	0.73977704
556.564	0.74205908
556.767	0.7443212
556.97	0.7466277
557.173	0.74896474
557.376	0.75140317
557.579	0.75364874
557.782	0.75603803
557.984	0.75856068
558.187	0.76093134
558.39	0.7631726
558.593	0.76557424
558.796	0.76779548
558.999	0.77012462
559.202	0.77242056
559.404	0.77454523
559.607	0.7770469
559.81	0.77935894
560.013	0.78170106
560.216	0.7840254
560.418	0.78649696
560.621	0.78884384
560.824	0.79137459
561.026	0.79362233
561.229	0.79599871
561.432	0.79826621
561.634	0.80059976
561.837	0.80270305
562.04	0.8050407
562.242	0.80717723
562.445	0.80946912
562.647	0.8118342
562.85	0.81404779
563.053	0.81635951
563.255	0.81872314
563.458	0.82100301
563.66	0.82338982
563.863	0.82585952
564.065	0.82829135
564.268	0.830651
564.47	0.83293769
564.672	0.83513945
564.875	0.8375198
565.077	0.83974491
565.28	0.84166804
565.482	0.84388832
565.684	0.84601829
565.887	0.84833547
566.089	0.85078473
566.291	0.85289337
566.494	0.85516706
566.696	0.85736038
566.898	0.85958359
567.1	0.86197153
567.303	0.86423785
567.505	0.86645993
567.707	0.86846189
567.909	0.87058098
568.111	0.87287706
568.314	0.87514185
568.516	0.87727087
568.718	0.87931679
568.92	0.88144136
569.122	0.88378425
569.324	0.8861039
569.526	0.88815307
569.728	0.89043178
569.93	0.89262958
570.132	0.89474362
570.334	0.89687521
570.536	0.89894576
570.738	0.90098109
570.94	0.90313871
571.142	0.90530033
571.344	0.90714459
571.546	0.90922323
571.748	0.91141216
571.95	0.91341972
572.152	0.91546359
572.354	0.91755054
572.555	0.91959313
572.757	0.92212336
572.959	0.92411924
573.161	0.92583998
573.363	0.92811311
573.564	0.93045622
573.766	0.9324928
573.968	0.93448359
574.17	0.93610343
574.371	0.93854449
574.573	0.94086159
574.775	0.94270911
574.976	0.9445234
575.178	0.94646078
575.38	0.94813705
575.581	0.95002998
575.783	0.95185617
575.985	0.95370924
576.186	0.95577116
576.388	0.95778103
576.589	0.95964696
576.791	0.96176781
576.992	0.96401888
577.194	0.96589725
577.395	0.96778209
577.597	0.96971597
577.798	0.97147691
578	0.97340313
578.201	0.97519447
578.402	0.97701362
578.604	0.978712
578.805	0.98066673
579.007	0.98237405
579.208	0.98426504
579.409	0.98619437
579.611	0.98781561
579.812	0.98973986
580.013	0.99157825
580.215	0.99295761
580.416	0.99471499
580.617	0.99641621
580.818	0.99823533
581.019	1.00012212
581.221	1.0017499
581.422	1.00342893
581.623	1.00556851
581.824	1.00712354
582.025	1.0086113
582.226	1.01023866
582.428	1.01210908
582.629	1.01380866
582.83	1.01533822
583.031	1.01683214
583.232	1.0189683
583.433	1.02102729
583.634	1.02254186
583.835	1.02397361
584.036	1.02546306
584.237	1.02718899
584.438	1.02884263
584.639	1.02996894
584.84	1.03131902
585.041	1.03273514
585.242	1.03431117
585.442	1.03587809
585.643	1.0377311
585.844	1.03923532
586.045	1.04114636
586.246	1.04251467
586.447	1.0439694
586.647	1.04517451
586.848	1.04645785
587.049	1.047462
587.25	1.04867842
587.45	1.04967026
587.651	1.05117366
587.852	1.05263727
588.053	1.05437385
588.253	1.05555325
588.454	1.05713712
588.655	1.0583454
588.855	1.05953974
589.056	1.06076419
589.256	1.06207883
589.457	1.06305147
589.658	1.06466955
589.858	1.06560755
590.059	1.06697455
590.259	1.06835351
590.46	1.06935197
590.66	1.07054077
590.861	1.07174563
591.061	1.07282621
591.262	1.07448793
591.462	1.07592098
591.662	1.07726295
591.863	1.0785566
592.063	1.07987915
592.264	1.08101883
592.464	1.08214745
592.664	1.08316393
592.865	1.08417067
593.065	1.08484122
593.265	1.08624065
593.465	1.0871004
593.666	1.08823389
593.866	1.08921312
594.066	1.09008308
594.266	1.09108433
594.467	1.09190359
594.667	1.09263752
594.867	1.09360948
595.067	1.09440976
595.267	1.0952777
595.467	1.09609759
595.668	1.09679208
595.868	1.09796584
596.068	1.09889788
596.268	1.09977123
596.468	1.10072598
596.668	1.10190094
596.868	1.10249749
597.068	1.10349677
597.268	1.10433025
597.468	1.10486418
597.668	1.1055946
597.868	1.1061533
598.068	1.10662809
598.268	1.10762805
598.467	1.10833461
598.667	1.10918587
598.867	1.10983933
599.067	1.110632
599.267	1.11138683
599.467	1.11198009
599.667	1.11225901
599.866	1.11307351
600.066	1.1137321
600.266	1.11425189
600.466	1.1148693
600.665	1.11526339
600.865	1.11573095
601.065	1.11682969
601.264	1.11707385
601.464	1.11759095
601.664	1.11859676
601.863	1.11924805
602.063	1.12015933
602.263	1.12034726
602.462	1.12081579
602.662	1.12157115
602.861	1.1216662
603.061	1.12196188
603.26	1.1222478
603.46	1.12236298
603.659	1.12305001
603.859	1.12335433
604.058	1.12348862
604.258	1.12418155
604.457	1.1250576
604.657	1.12514096
604.856	1.12536745
605.056	1.12579081
605.255	1.12583283
605.454	1.12608484
605.654	1.12627236
605.853	1.12612072
606.052	1.126171
606.252	1.12649675
606.451	1.12673859
606.65	1.12721076
606.849	1.12712271
607.049	1.12710554
607.248	1.12701639
607.447	1.12753708
607.646	1.12799229
607.845	1.12790854
608.045	1.12777825
608.244	1.12819384
608.443	1.12843846
608.642	1.1287303
608.841	1.12870065
609.04	1.12834604
609.239	1.12885235
609.438	1.12897377
609.637	1.12884908
609.836	1.12882203
610.035	1.12865386
610.234	1.12880194
610.433	1.12887925
610.632	1.12860499
610.831	1.12849627
611.03	1.12837537
611.229	1.12861097
611.428	1.12863687
611.627	1.12847285
611.826	1.1282659
612.025	1.12819714
612.224	1.12805486
612.422	1.12795733
612.621	1.12732399
612.82	1.12703636
613.019	1.12647431
613.218	1.1263794
613.416	1.12584115
613.615	1.12552625
613.814	1.12501395
614.012	1.12482494
614.211	1.12429195
614.41	1.1240422
614.608	1.12369263
614.807	1.1235073
615.006	1.12318305
615.204	1.12266149
615.403	1.12236079
615.602	1.12218261
615.8	1.12170911
615.999	1.12087703
616.197	1.12037241
616.396	1.11979437
616.594	1.11949488
616.793	1.11896709
616.991	1.11824872
617.19	1.11783715
617.388	1.1177846
617.586	1.117205
617.785	1.11680716
617.983	1.11644081
618.182	1.11554164
618.38	1.11492586
618.578	1.11432433
618.777	1.11379034
618.975	1.11348594
619.173	1.11275522
619.372	1.11217598
619.57	1.1117963
619.768	1.1114792
619.966	1.1108405
620.165	1.10963918
620.363	1.10884304
620.561	1.1081205
620.759	1.10725313
620.957	1.10675268
621.155	1.10573881
621.354	1.10510221
621.552	1.10490076
621.75	1.1038934
621.948	1.10335526
622.146	1.10253863
622.344	1.1012494
622.542	1.10063274
622.74	1.09950212
622.938	1.0985336
623.136	1.09788284
623.334	1.09710507
623.532	1.09619819
623.73	1.095734
623.928	1.09490854
624.126	1.09436204
624.324	1.09359492
624.522	1.09240988
624.719	1.0909334
624.917	1.0900076
625.115	1.0886685
625.313	1.08775121
625.511	1.0866454
625.708	1.08522469
625.906	1.08416221
626.104	1.0832845
626.302	1.08218386
626.499	1.08131402
626.697	1.08009597
626.895	1.07907659
627.093	1.07838584
627.29	1.07762384
627.488	1.07663698
627.686	1.07585615
627.883	1.07490669
628.081	1.07354862
628.278	1.07250608
628.476	1.07117407
628.673	1.06992671
628.871	1.06874016
629.068	1.0673894
629.266	1.06610101
629.463	1.06527827
629.661	1.06403292
629.858	1.06287296
630.056	1.06160581
630.253	1.0607289
630.451	1.05955114
630.648	1.05826379
630.845	1.05688593
631.043	1.05550073
631.24	1.05436668
631.438	1.05308147
631.635	1.05154446
631.832	1.05014244
632.029	1.04906904
632.227	1.04764218
632.424	1.04655671
632.621	1.04504091
632.818	1.04382797
633.016	1.04247655
633.213	1.04124189
633.41	1.0396252
633.607	1.03823388
633.804	1.03671465
634.001	1.03528253
634.199	1.03362153
634.396	1.03227516
634.593	1.03078239
634.79	1.02953383
634.987	1.02810513
635.184	1.02659523
635.381	1.02520199
635.578	1.02393565
635.775	1.02247536
635.972	1.02117629
636.169	1.01971316
636.366	1.01848358
636.563	1.01701237
636.76	1.01550836
636.957	1.01413564
637.153	1.01238802
637.35	1.0110107
637.547	1.00944839
637.744	1.00769067
637.941	1.0062976
638.138	1.00461278
638.334	1.00297792
638.531	1.00169654
638.728	0.99984754
638.925	0.99818861
639.121	0.99666342
639.318	0.99484129
639.515	0.99314284
639.711	0.99150612
639.908	0.98936472
640.105	0.98753672
640.301	0.9858628
640.498	0.98408558
640.695	0.98261025
640.891	0.9810282
641.088	0.97927919
641.284	0.97781285
641.481	0.9762532
641.677	0.97452968
641.874	0.97266203
642.07	0.97077459
642.267	0.96946624
642.463	0.96753188
642.66	0.96597311
642.856	0.96425487
643.053	0.96235034
643.249	0.96073148
643.445	0.95904177
643.642	0.95691581
643.838	0.95544842
644.034	0.95358125
644.231	0.95172148
644.427	0.94996686
644.623	0.9481626
644.82	0.94643659
645.016	0.94461281
645.212	0.94256661
645.408	0.94066706
645.604	0.93912787
645.801	0.93750491
645.997	0.93565363
646.193	0.9337218
646.389	0.93198267
646.585	0.93034282
646.781	0.9285582
646.977	0.92677673
647.173	0.92492472
647.37	0.92318095
647.566	0.9212314
647.762	0.91931079
647.958	0.91750949
648.154	0.915518
648.35	0.91348851
648.546	0.91133487
648.742	0.9093614
648.937	0.90748667
649.133	0.90570305
649.329	0.90363968
649.525	0.9017952
649.721	0.89980017
649.917	0.89818241
650.113	0.8962059
650.309	0.89437795
650.504	0.89225639
650.7	0.89031328
650.896	0.88826374
651.092	0.88625719
651.287	0.88410369
651.483	0.88207005
651.679	0.88008707
651.875	0.87818103
652.07	0.87619355
652.266	0.87430888
652.462	0.87238107
652.657	0.87034633
652.853	0.86823867
653.048	0.86609294
653.244	0.86404081
653.44	0.86192449
653.635	0.85973324
653.831	0.85757606
654.026	0.85574376
654.222	0.85381149
654.417	0.8518795
654.613	0.84970097
654.808	0.84746114
655.004	0.84546022
655.199	0.84347025
655.394	0.84119647
655.59	0.83919443
655.785	0.83694531
655.98	0.83491314
656.176	0.83282714
656.371	0.83087502
656.566	0.82876392
656.762	0.82675421
656.957	0.82458463
657.152	0.82258528
657.348	0.82055837
657.543	0.81860087
657.738	0.81635686
657.933	0.81430416
658.128	0.81216367
658.324	0.80995172
658.519	0.80796404
658.714	0.80583376
658.909	0.80369481
659.104	0.80177331
659.299	0.79956228
659.494	0.79736353
659.689	0.79547748
659.884	0.79313094
660.079	0.7908967
660.274	0.78877525
660.469	0.78657314
660.664	0.78465292
660.859	0.78255425
661.054	0.78034713
661.249	0.77831854
661.444	0.77625319
661.639	0.7740992
661.834	0.77186916
662.029	0.76963835
662.224	0.76749138
662.418	0.76530754
662.613	0.76321449
662.808	0.76097079
663.003	0.7588841
663.198	0.75679717
663.392	0.75446098
663.587	0.75248302
663.782	0.75032314
663.977	0.74808519
664.171	0.74612435
664.366	0.74395242
664.561	0.74180077
664.755	0.73966392
664.95	0.73741671
665.144	0.73522131
665.339	0.73317022
665.534	0.73094057
665.728	0.72882166
665.923	0.72658623
666.117	0.72451253
666.312	0.72233251
666.506	0.72014801
666.701	0.71786717
666.895	0.71573133
667.09	0.71348761
667.284	0.71148138
667.479	0.70929577
667.673	0.70715318
667.867	0.70506801
668.062	0.70294199
668.256	0.70077674
668.45	0.69883292
668.645	0.69666646
668.839	0.69456031
669.033	0.6923271
669.228	0.69009002
669.422	0.68795424
669.616	0.6857039
669.81	0.68352182
670.004	0.68128517
670.199	0.67917952
670.393	0.67710333
670.587	0.67496437
670.781	0.67295495
670.975	0.67083999
671.169	0.66848665
671.363	0.66634556
671.558	0.6641152
671.752	0.66196799
671.946	0.65998212
672.14	0.65775163
672.334	0.65556747
672.528	0.65365042
672.722	0.6513636
672.916	0.64923697
673.11	0.64698395
673.304	0.64487608
673.497	0.64247947
673.691	0.64051507
673.885	0.63820821
674.079	0.63616231
674.273	0.6340256
674.467	0.63206592
674.661	0.62986919
674.854	0.62788482
675.048	0.62560824
675.242	0.62359704
675.436	0.62146563
675.629	0.61918793
675.823	0.61686861
676.017	0.61478199
676.211	0.61263491
676.404	0.61053552
676.598	0.60839664
676.792	0.60626385
676.985	0.60425863
677.179	0.60216925
677.372	0.60004608
677.566	0.59803227
677.76	0.59596156
677.953	0.59369962
678.147	0.59172891
678.34	0.58970223
678.534	0.58766097
678.727	0.58555615
678.921	0.58352388
679.114	0.58138481
679.307	0.57942143
679.501	0.57727786
679.694	0.57515747
679.888	0.57307264
680.081	0.57104008
680.274	0.56887011
680.468	0.56684591
680.661	0.56476131
680.854	0.56274422
681.048	0.56070159
681.241	0.55859134
681.434	0.55656018
681.627	0.55454504
681.821	0.55249854
682.014	0.55047236
682.207	0.54838694
682.4	0.54635559
682.593	0.54434381
682.786	0.54231679
682.98	0.5402368
683.173	0.53830565
683.366	0.53634911
683.559	0.53443357
683.752	0.53250322
683.945	0.53053278
684.138	0.52862724
684.331	0.52659942
684.524	0.52458399
684.717	0.52246944
684.91	0.52039278
685.103	0.51836473
685.296	0.51633958
685.489	0.51423837
685.682	0.51228151
685.874	0.51046209
686.067	0.50856599
686.26	0.50661485
686.453	0.50454383
686.646	0.50248708
686.839	0.5005936
687.031	0.49859328
687.224	0.4963606
687.417	0.49451095
687.61	0.49250766
687.802	0.4905526
687.995	0.48870744
688.188	0.48680979
688.38	0.48488635
688.573	0.48303899
688.766	0.48105348
688.958	0.47911616
689.151	0.47720579
689.343	0.47530386
689.536	0.47329578
689.729	0.47145273
689.921	0.46955325
690.114	0.46759685
690.306	0.46570542
690.499	0.46382875
690.691	0.46192051
690.884	0.46006844
691.076	0.45812176
691.268	0.45619469
691.461	0.45427463
691.653	0.45242467
691.846	0.45058046
692.038	0.44878756
692.23	0.4468071
692.423	0.44499803
692.615	0.4431864
692.807	0.44139257
692.999	0.43955948
693.192	0.43770119
693.384	0.43585365
693.576	0.43406463
693.768	0.43225748
693.961	0.43035399
694.153	0.42860647
694.345	0.42676341
694.537	0.42496697
694.729	0.42317724
694.921	0.42137226
695.113	0.41964567
695.305	0.41790542
695.498	0.41608145
695.69	0.4143923
695.882	0.4126149
696.074	0.41089163
696.266	0.40909399
696.458	0.40719569
696.65	0.40546068
696.842	0.40370652
697.033	0.40193481
697.225	0.40019889
697.417	0.39843904
697.609	0.39683775
697.801	0.39524292
697.993	0.39355432
698.185	0.39182328
698.376	0.39016501
698.568	0.38846195
698.76	0.38683649
698.952	0.38507419
699.144	0.38327675
699.335	0.38164942
699.527	0.37991234
699.719	0.37818178
699.91	0.37653287
700.102	0.37478533
700.294	0.37312235
700.485	0.37148136
700.677	0.36970246
700.869	0.36818367
701.06	0.36658978
701.252	0.36498551
701.443	0.36340604
701.635	0.36186027
701.826	0.36031959
702.018	0.35879361
702.209	0.35717592
702.401	0.35550831
702.592	0.35394542
702.784	0.35236886
702.975	0.35075832
703.166	0.34913012
703.358	0.34749109
703.549	0.34590146
703.741	0.34435971
703.932	0.34273379
704.123	0.34111979
704.315	0.33955096
704.506	0.33811876
704.697	0.33654639
704.888	0.33508175
705.08	0.33363013
705.271	0.33210805
705.462	0.33062754
705.653	0.32909881
705.844	0.3275001
706.035	0.32602341
706.227	0.3244962
706.418	0.3229079
706.609	0.32143187
706.8	0.31994191
706.991	0.31844411
707.182	0.31702099
707.373	0.31552247
707.564	0.31405023
707.755	0.31257256
707.946	0.31110719
708.137	0.30955342
708.328	0.30802216
708.519	0.30660273
708.71	0.305187
708.901	0.30376418
709.092	0.30243139
709.283	0.30104787
709.473	0.29966224
709.664	0.29838358
709.855	0.2969001
710.046	0.29554339
710.237	0.29411633
710.427	0.29269021
710.618	0.29134222
710.809	0.28999186
711	0.28859044
711.19	0.28720142
711.381	0.28586547
711.572	0.28450937
711.762	0.28320821
711.953	0.28185064
712.144	0.28048544
712.334	0.27916406
712.525	0.2779515
712.715	0.2767103
712.906	0.2753833
713.097	0.27398158
713.287	0.27268021
713.478	0.27137905
713.668	0.27009044
713.859	0.26876647
714.049	0.26735292
714.239	0.2661142
714.43	0.264901
714.62	0.26361547
714.811	0.26228877
715.001	0.26101109
715.191	0.25964713
715.382	0.25835556
715.572	0.25710122
715.762	0.25582816
715.953	0.25465109
716.143	0.25348307
716.333	0.25221936
716.523	0.25104801
716.714	0.24994783
716.904	0.24869813
717.094	0.24756369
717.284	0.24627549
717.474	0.24500901
717.664	0.24392883
717.855	0.24277346
718.045	0.24153075
718.235	0.24036993
718.425	0.23915555
718.615	0.23797592
718.805	0.23688725
718.995	0.23571987
719.185	0.23461835
719.375	0.23349281
719.565	0.23239571
719.755	0.23129343
719.945	0.23021611
720.135	0.22912988
720.325	0.22806533
720.515	0.22693365
720.704	0.22588689
720.894	0.22482654
721.084	0.22377081
721.274	0.22272541
721.464	0.22160446
721.654	0.22051449
721.843	0.21941132
722.033	0.21827599
722.223	0.21713261
722.413	0.21606054
722.602	0.21499533
722.792	0.21402001
722.982	0.21294718
723.171	0.21193908
723.361	0.21090002
723.55	0.20991705
723.74	0.20885162
723.93	0.20777844
724.119	0.20664528
724.309	0.20560989
724.498	0.20448829
724.688	0.20345634
724.877	0.20244754
725.067	0.20143476
725.256	0.20042842
725.446	0.19944845
725.635	0.19843577
725.825	0.19742707
726.014	0.19641539
726.203	0.19537169
726.393	0.1943111
726.582	0.19325214
726.771	0.1922843
726.961	0.19130676
727.15	0.1903522
727.339	0.18939802
727.529	0.18844681
727.718	0.18748488
727.907	0.18654247
728.096	0.18552512
728.286	0.18449896
728.475	0.18356835
728.664	0.18260459
728.853	0.18163856
729.042	0.18071322
729.231	0.17981949
729.42	0.17899316
729.609	0.17816382
729.799	0.17723435
729.988	0.1763064
730.177	0.17539634
730.366	0.17441751
730.555	0.17347834
730.744	0.17251408
730.933	0.17151315
731.122	0.17062407
731.31	0.16975995
731.499	0.16890451
731.688	0.16805091
731.877	0.1671591
732.066	0.16631043
732.255	0.16550014
732.444	0.16464938
732.632	0.16379272
732.821	0.1629044
733.01	0.16207952
733.199	0.16124778
733.388	0.16037033
733.576	0.15956106
733.765	0.15873402
733.954	0.15792328
734.142	0.15712297
734.331	0.15627277
734.52	0.15544316
734.708	0.15461696
734.897	0.1537488
735.086	0.15289573
735.274	0.15202943
735.463	0.15126311
735.651	0.15047891
735.84	0.14972257
736.028	0.14889014
736.217	0.14810706
736.405	0.14732225
736.594	0.14658585
736.782	0.14578673
736.971	0.14503461
737.159	0.14428718
737.347	0.14358323
737.536	0.14291224
737.724	0.14221771
737.912	0.14149755
738.101	0.14072971
738.289	0.14006394
738.477	0.13933509
738.666	0.13862423
738.854	0.13781194
739.042	0.13708103
739.23	0.1363028
739.418	0.1355934
739.607	0.13479377
739.795	0.13406451
739.983	0.13337521
740.171	0.13272939
740.359	0.13207082
740.547	0.13145346
740.735	0.13075722
740.923	0.13008212
741.112	0.1294096
741.3	0.12869985
741.488	0.12801658
741.676	0.12734485
741.864	0.1266597
742.052	0.12600964
742.239	0.1253222
742.427	0.12465928
742.615	0.12401986
742.803	0.12335548
742.991	0.12267742
743.179	0.12207733
743.367	0.12146367
743.555	0.12088007
743.742	0.1202739
743.93	0.11964454
744.118	0.11901278
744.306	0.11847957
744.494	0.11786205
744.681	0.11720368
744.869	0.11660969
745.057	0.11603728
745.244	0.11544731
745.432	0.11487793
745.62	0.11422303
745.807	0.11360665
745.995	0.11305279
746.182	0.11242785
746.37	0.11177768
746.558	0.11116417
746.745	0.11054632
746.933	0.10986603
747.12	0.10927086
747.308	0.10874025
747.495	0.10815426
747.683	0.10761275
747.87	0.10709937
748.057	0.10657072
748.245	0.10612673
748.432	0.10560792
748.62	0.10503177
748.807	0.104515
748.994	0.1039098
749.182	0.10331104
749.369	0.10275385
749.556	0.10222931
749.743	0.10167154
749.931	0.1011285
750.118	0.10061993
750.305	0.10015713
750.492	0.09965684
750.68	0.09916475
750.867	0.09860279
751.054	0.09808448
751.241	0.09751278
751.428	0.09695591
751.615	0.09639998
751.802	0.09592422
751.989	0.09537979
752.176	0.09487096
752.363	0.09440383
752.55	0.09395408
752.737	0.09349462
752.924	0.09305828
753.111	0.09252414
753.298	0.09205899
753.485	0.09163358
753.672	0.09110975
753.859	0.09071153
754.046	0.09026946
754.233	0.08977948
754.42	0.08940859
754.606	0.08894639
754.793	0.08845317
754.98	0.08806944
755.167	0.08754387
755.353	0.0871043
755.54	0.08666636
755.727	0.08621029
755.914	0.08581863
756.1	0.08542757
756.287	0.08494295
756.474	0.08447515
756.66	0.08399606
756.847	0.08361441
757.033	0.0831701
757.22	0.08271697
757.407	0.08230295
757.593	0.08190385
757.78	0.08151348
757.966	0.08114387
758.153	0.08076902
758.339	0.08031696
758.526	0.07989449
758.712	0.07945422
758.898	0.07903186
759.085	0.07862454
759.271	0.07818392
759.458	0.07768805
759.644	0.0773061
759.83	0.07688215
760.017	0.07649774
760.203	0.07611757
760.389	0.07576165
760.576	0.07533661
760.762	0.07499143
760.948	0.07455521
761.134	0.07423339
761.32	0.07383177
761.507	0.07346126
761.693	0.07307301
761.879	0.07277643
762.065	0.07240509
762.251	0.07212422
762.437	0.07179265
762.623	0.0714673
762.809	0.0711244
762.995	0.07079284
763.181	0.07043581
763.367	0.07013398
763.553	0.06975338
763.739	0.06939463
763.925	0.06903925
764.111	0.068712
764.297	0.06836724
764.483	0.06800861
764.669	0.06759987
764.855	0.06726389
765.041	0.0668645
765.227	0.0664386
765.412	0.06606
765.598	0.06568126
765.784	0.06536899
765.97	0.06506595
766.156	0.06468674
766.341	0.06430831
766.527	0.06400013
766.713	0.06369747
766.898	0.06340671
767.084	0.06306714
767.27	0.0627036
767.455	0.06243944
767.641	0.06221113
767.827	0.06193602
768.012	0.06165052
768.198	0.06136765
768.383	0.06104442
768.569	0.0607753
768.754	0.06043547
768.94	0.06008497
769.125	0.059745
769.311	0.05939132
769.496	0.05904513
769.682	0.05878848
769.867	0.05854878
770.052	0.05828781
770.238	0.0581191
770.423	0.0579393
770.608	0.05769617
770.794	0.05745727
770.979	0.05715233
771.164	0.05678319
771.35	0.05645709
771.535	0.05604586
771.72	0.05567913
771.905	0.05535831
772.09	0.05507319
772.276	0.05478319
772.461	0.05452689
772.646	0.05429826
772.831	0.05411452
773.016	0.05387813
773.201	0.05365988
773.386	0.05339801
773.571	0.05319597
773.756	0.05299307
773.941	0.05278578
774.126	0.0525512
774.311	0.05230174
774.496	0.05207653
774.681	0.05190262
774.866	0.05163786
775.051	0.05136226
775.236	0.05108814
775.421	0.05085215
775.606	0.05063851
775.791	0.05038097
775.976	0.05012082
776.16	0.04993791
776.345	0.04975772
776.53	0.04947078
776.715	0.04915843
776.899	0.04889572
777.084	0.04867718
777.269	0.04834038
777.454	0.04805142
777.638	0.04778305
777.823	0.04757611
778.008	0.04736339
778.192	0.04714911
778.377	0.04692855
778.561	0.04675106
778.746	0.04661303
778.931	0.04647438
779.115	0.0463704
779.3	0.04620123
779.484	0.04599325
779.669	0.04579341
779.853	0.04558687
780.037	0.04532553
780.222	0.04504832
780.406	0.04475049
780.591	0.04449168
780.775	0.04420894
780.959	0.04388787
781.144	0.04365231
781.328	0.0434042
781.512	0.04316982
781.697	0.04295584
781.881	0.04278738
782.065	0.04269518
782.249	0.04258551
782.434	0.04242984
782.618	0.04226903
782.802	0.04213906
782.986	0.0419486
783.17	0.04175795
783.354	0.04156789
783.539	0.0413912
783.723	0.0412103
783.907	0.04107341
784.091	0.04086782
784.275	0.04072353
784.459	0.04053705
784.643	0.04033772
784.827	0.04016938
785.011	0.03994559
785.195	0.03970615
785.379	0.0395186
785.563	0.03939189
785.747	0.03925488
785.93	0.03904407
786.114	0.03879576
786.298	0.03866882
786.482	0.03846237
786.666	0.03824465
786.85	0.03796773
787.033	0.03777883
787.217	0.03760228
787.401	0.0374638
787.585	0.03733013
787.768	0.0372331
787.952	0.03710438
788.136	0.03697277
788.319	0.0367724
788.503	0.03660548
788.687	0.03646383
788.87	0.03626045
789.054	0.03601169
789.237	0.03587898
789.421	0.0357308
789.605	0.03557151
789.788	0.03545389
789.972	0.03531443
790.155	0.03514722
790.338	0.03506881
790.522	0.03484454
790.705	0.03466775
790.889	0.03449143
791.072	0.03428394
791.256	0.03414319
791.439	0.03394956
791.622	0.03374906
791.806	0.03361286
791.989	0.03346551
792.172	0.03335321
792.355	0.03323414
792.539	0.0330169
792.722	0.03287438
792.905	0.03273163
793.088	0.03260957
793.271	0.03250915
793.455	0.03236444
793.638	0.03227268
793.821	0.03213563
794.004	0.03198464
794.187	0.03183696
794.37	0.03170979
794.553	0.03154539
794.736	0.03140398
794.919	0.03128819
795.102	0.03117965
795.285	0.0310724
795.468	0.03099804
795.651	0.03085762
795.834	0.03076297
796.017	0.03068422
796.2	0.03052582
796.383	0.03045486
796.566	0.0304551
796.749	0.03036653
796.931	0.03031852
797.114	0.0301521
797.297	0.03001061
797.48	0.0298959
797.663	0.02972652
797.845	0.0295488
798.028	0.02935538
798.211	0.02916454
798.393	0.02900569
798.576	0.02887539
798.759	0.02876088
798.941	0.02865394
799.124	0.02850311
799.307	0.02834829
799.489	0.02821798
799.672	0.0281381
799.854	0.02803415
800.037	0.02787912
800.219	0.02774506
800.402	0.02764533
800.584	0.02762356
800.767	0.02753143
800.949	0.02743532
801.132	0.02735864
801.314	0.02732728
801.496	0.02724529
801.679	0.02713094
801.861	0.02696898
802.043	0.02689267
802.226	0.02678503
802.408	0.02661573
802.59	0.02642787
802.772	0.02628037
802.955	0.02611243
803.137	0.02603458
803.319	0.0258884
803.501	0.02580027
803.684	0.02576361
803.866	0.02568916
804.048	0.02562506
804.23	0.0256108
804.412	0.02551358
804.594	0.02543525
804.776	0.02534091
804.958	0.025224
805.14	0.02509486
805.322	0.02496688
805.504	0.02482599
805.686	0.02468812
805.868	0.02461635
806.05	0.02448089
806.232	0.02439287
806.414	0.02429533
806.596	0.02415703
806.778	0.02402407
806.96	0.02392246
807.141	0.0237779
807.323	0.023629
807.505	0.02346326
807.687	0.02339032
807.869	0.02337855
808.05	0.02334336
808.232	0.0232871
808.414	0.02323567
808.595	0.02325755
808.777	0.02323239
808.959	0.02318918
809.14	0.02313091
809.322	0.0231592
809.504	0.02312256
809.685	0.02305955
809.867	0.02300195
810.048	0.022954
810.23	0.02287174
810.411	0.02267307
810.593	0.02244459
810.774	0.02232485
810.956	0.0221837
811.137	0.02204048
811.319	0.02189929
811.5	0.02171705
811.681	0.02170164
811.863	0.02166176
812.044	0.02152657
812.225	0.02148148
812.407	0.02141188
812.588	0.02131775
812.769	0.02128071
812.951	0.02121011
813.132	0.02113394
813.313	0.02113568
813.494	0.02102116
813.675	0.02098467
813.857	0.02088811
814.038	0.02081953
814.219	0.02070632
814.4	0.0205977
814.581	0.02050438
814.762	0.0204344
814.943	0.02032031
815.124	0.0202682
815.305	0.02020896
815.486	0.02017896
815.667	0.02008535
815.848	0.02000439
816.029	0.01990587
816.21	0.01978911
816.391	0.01971831
816.572	0.01961596
816.753	0.01953921
816.934	0.01948868
817.115	0.01937087
817.295	0.01933117
817.476	0.01930125
817.657	0.01927298
817.838	0.01927253
818.019	0.01925481
818.199	0.01924593
818.38	0.01921631
818.561	0.01916003
818.741	0.01911829
818.922	0.01903276
819.103	0.01889738
819.283	0.01881231
819.464	0.01874315
819.645	0.01861732
819.825	0.01853913
820.006	0.01837449
820.186	0.01825749
820.367	0.01817443
820.547	0.01804442
820.728	0.01798969
820.908	0.01802441
821.089	0.01797127
821.269	0.01800277
821.45	0.01800535
821.63	0.01797604
821.81	0.01791926
821.991	0.01776896
822.171	0.0176611
822.351	0.01760698
822.532	0.01751664
822.712	0.01739856
822.892	0.01732352
823.072	0.01731273
823.253	0.01740358
823.433	0.01737674
823.613	0.01733208
823.793	0.0172812
823.973	0.01731772
824.154	0.01734987
824.334	0.01728973
824.514	0.01714301
824.694	0.0170409
824.874	0.01693475
825.054	0.01692048
825.234	0.01685149
825.414	0.01676276
825.594	0.01670289
825.774	0.01662781
825.954	0.01663996
826.134	0.01658752
826.314	0.01652438
826.494	0.01642759
826.674	0.01635743
826.854	0.01631331
827.033	0.01629255
827.213	0.01623342
827.393	0.01628379
827.573	0.016238
827.753	0.0162577
827.932	0.01623419
828.112	0.01618156
828.292	0.01613799
828.472	0.01610239
828.651	0.01597956
828.831	0.01588918
829.011	0.01576695
829.19	0.01560703
829.37	0.01553488
829.549	0.01543989
829.729	0.01530178
829.909	0.01520279
830.088	0.01508684
830.268	0.01498676
830.447	0.01497968
830.627	0.01487557
830.806	0.01481518
830.986	0.014829
831.165	0.01486159
831.344	0.0148824
831.524	0.01491993
831.703	0.01492826
831.883	0.01491183
832.062	0.01484269
832.241	0.01481034
832.421	0.01467749
832.6	0.0146016
832.779	0.01451642
832.958	0.01442206
833.138	0.01437083
833.317	0.0143112
833.496	0.01416643
833.675	0.01415221
833.854	0.0141482
834.034	0.01405408
834.213	0.01403654
834.392	0.01401605
834.571	0.01407261
834.75	0.01413467
834.929	0.0141635
835.108	0.01414557
835.287	0.01413379
835.466	0.01412951
835.645	0.01413001
835.824	0.0140704
836.003	0.01391098
836.182	0.01384008
836.361	0.01376825
836.54	0.01369955
836.719	0.0135746
836.897	0.01344924
837.076	0.01343982
837.255	0.01348322
837.434	0.01341544
837.613	0.01337756
837.791	0.01339215
837.97	0.01339113
838.149	0.01329014
838.328	0.01317448
838.506	0.01305192
838.685	0.01298468
838.864	0.01293119
839.042	0.01283613
839.221	0.01280163
839.4	0.0128281
839.578	0.01288965
839.757	0.01298727
839.935	0.01294526
840.114	0.01291732
840.292	0.01296926
840.471	0.01292724
840.649	0.01288871
840.828	0.01277588
841.006	0.01265926
841.185	0.01262828
841.363	0.01252373
841.541	0.01242365
841.72	0.01237412
841.898	0.01241906
842.076	0.01237499
842.255	0.01232333
842.433	0.01232192
842.611	0.01227215
842.789	0.01217013
842.968	0.01214319
843.146	0.0120188
843.324	0.01200316
843.502	0.01196371
843.68	0.01190888
843.859	0.01191535
844.037	0.01193736
844.215	0.01190602
844.393	0.01194598
844.571	0.0119054
844.749	0.01187077
844.927	0.01185379
845.105	0.01189332
845.283	0.01193716
845.461	0.01193469
845.639	0.0118646
845.817	0.01179036
845.995	0.01177004
846.173	0.01168164
846.351	0.01153885
846.529	0.01141502
846.706	0.0113132
846.884	0.01127683
847.062	0.01120248
847.24	0.01121432
847.418	0.01123011
847.595	0.01120012
847.773	0.01118391
847.951	0.01113112
848.129	0.01111009
848.306	0.01110334
848.484	0.01098519
848.662	0.01092001
848.839	0.01096165
849.017	0.01091502
849.194	0.01085401
849.372	0.01078739
849.549	0.01083026
849.727	0.01084616
849.905	0.01082762
850.082	0.01075828
850.26	0.01075565
850.437	0.01086507
850.614	0.01085388
850.792	0.01080435
850.969	0.01075727
851.147	0.01078854
851.324	0.01074187
851.501	0.01074505
851.679	0.010755
851.856	0.01081479
852.033	0.01079313
852.211	0.01079131
852.388	0.01071458
852.565	0.01072267
852.742	0.01070996
852.92	0.01054351
853.097	0.01037601
853.274	0.0102887
853.451	0.01027631
853.628	0.01029346
853.805	0.01025067
853.982	0.0101938
854.159	0.01027435
854.336	0.0104039
854.514	0.01041727
854.691	0.010353
854.868	0.0102821
855.045	0.01028676
855.221	0.01031409
855.398	0.01025276
855.575	0.01012212
855.752	0.01011778
855.929	0.01016667
856.106	0.01020801
856.283	0.01019857
856.46	0.01013238
856.637	0.01008595
856.813	0.01003936
856.99	0.00994502
857.167	0.00983441
857.344	0.0097389
857.52	0.00965506
857.697	0.00956023
857.874	0.00953177
858.05	0.0095515
858.227	0.00959264
858.404	0.00958828
858.58	0.00957176
858.757	0.00958086
858.933	0.00961436
859.11	0.00957653
859.287	0.00952662
859.463	0.00945538
859.64	0.00944925
859.816	0.00937479
859.993	0.0093515
860.169	0.0092838
860.345	0.00926384
860.522	0.00927182
860.698	0.00930529
860.875	0.00924909
861.051	0.00923069
861.227	0.00920089
861.404	0.00922226
861.58	0.00916646
861.756	0.0091366
861.932	0.00910636
862.109	0.00910521
862.285	0.0091898
862.461	0.00918533
862.637	0.0092209
862.813	0.00926764
862.99	0.00923383
863.166	0.00915346
863.342	0.00917968
863.518	0.0091359
863.694	0.00907808
863.87	0.00908837
864.046	0.00906737
864.222	0.00898031
864.398	0.008971
864.574	0.00884163
864.75	0.00874922
864.926	0.00883838
865.102	0.00869611
865.278	0.00864032
865.454	0.00866934
865.63	0.00868637
865.805	0.00873389
865.981	0.00877475
866.157	0.00869594
866.333	0.00874588
866.509	0.00873728
866.684	0.00876924
866.86	0.00876801
867.036	0.00867145
867.212	0.00858273
867.387	0.00858807
867.563	0.00853568
867.739	0.00853187
867.914	0.00848138
868.09	0.00848779
868.265	0.008651
868.441	0.00872258
868.617	0.0086554
868.792	0.00863677
868.968	0.00860733
869.143	0.00863062
869.319	0.00861517
869.494	0.00849196
869.67	0.00851247
869.845	0.00856275
870.02	0.00856922
870.196	0.00855995
870.371	0.00859414
870.546	0.00855467
870.722	0.00856029
870.897	0.00853628
871.072	0.00850024
871.248	0.00845494
871.423	0.00840617
871.598	0.00839878
871.773	0.0083984
871.949	0.00837212
872.124	0.00829373
872.299	0.00830449
872.474	0.00833991
872.649	0.00840984
872.824	0.00838785
872.999	0.0083798
873.174	0.00841288
873.349	0.0083137
873.524	0.0082659
873.699	0.00832119
873.874	0.00828345
874.049	0.00829355
874.224	0.00831235
874.399	0.0083711
874.574	0.0085003
874.749	0.00845379
874.924	0.00839396
875.099	0.00837741
875.274	0.0082611
875.449	0.00818817
875.623	0.00808377
875.798	0.00801607
875.973	0.00803695
876.148	0.00793774
876.322	0.00794994
876.497	0.00796917
876.672	0.00801505
876.846	0.00796399
877.021	0.00792169
877.196	0.00795526
877.37	0.00803719
877.545	0.00800833
877.72	0.00807563
877.894	0.00802273
878.069	0.00799565
878.243	0.00808038
878.418	0.00800834
878.592	0.00789732
878.767	0.00776283
878.941	0.00760272
879.116	0.00751685
879.29	0.00749778
879.464	0.00739069
879.639	0.00738203
879.813	0.00745999
879.987	0.00758877
880.162	0.00766477
880.336	0.00772186
880.51	0.00775806
880.685	0.00776881
880.859	0.0078082
881.033	0.00767104
881.207	0.00755216
881.381	0.00746759
881.556	0.0074322
881.73	0.00745356
881.904	0.00757807
882.078	0.00767764
882.252	0.00773688
882.426	0.00786197
882.6	0.00792356
882.774	0.00799535
882.948	0.00799354
883.122	0.00787512
883.296	0.00776092
883.47	0.00780666
883.644	0.00775552
883.818	0.00779609
883.992	0.00783099
884.166	0.00778485
884.34	0.00779169
884.514	0.00777044
884.687	0.00774076
884.861	0.00768496
885.035	0.00763327
885.209	0.00755449
885.382	0.00758461
885.556	0.0075252
885.73	0.00750226
885.904	0.00747487
886.077	0.00743108
886.251	0.00739402
886.425	0.00738654
886.598	0.00733191
886.772	0.00735391
886.945	0.00731328
887.119	0.0073271
887.292	0.00738941
887.466	0.00736298
887.64	0.00730242
887.813	0.00731408
887.986	0.00724423
888.16	0.00726851
888.333	0.00727182
888.507	0.00726856
888.68	0.00722805
888.854	0.00721051
889.027	0.007208
889.2	0.00726308
889.374	0.00720017
889.547	0.00722153
889.72	0.00720122
889.893	0.00714605
890.067	0.00715749
890.24	0.00712033
890.413	0.00710577
890.586	0.00712697
890.759	0.00702465
890.933	0.00693734
891.106	0.00704816
891.279	0.00702738
891.452	0.00709837
891.625	0.00703607
891.798	0.00707838
891.971	0.00706114
892.144	0.00710925
892.317	0.0070269
892.49	0.00702198
892.663	0.00702604
892.836	0.0070135
893.009	0.00690046
893.182	0.00692262
893.355	0.00690619
893.527	0.00692599
893.7	0.00686272
893.873	0.00684051
894.046	0.00685989
894.219	0.00685856
894.391	0.00684321
894.564	0.00675041
894.737	0.00668886
894.91	0.00668746
895.082	0.00656917
895.255	0.00654287
895.428	0.00661873
895.6	0.00662384
895.773	0.00665206
895.945	0.00670173
896.118	0.00676364
896.291	0.0067531
896.463	0.00676687
896.636	0.00670471
896.808	0.00664075
896.981	0.00669668
897.153	0.0066473
897.326	0.00656922
897.498	0.00656042
897.67	0.00650046
897.843	0.00648063
898.015	0.0064295
898.187	0.00631233
898.36	0.00631869
898.532	0.0063473
898.704	0.00638226
898.877	0.00644263
899.049	0.00646146
899.221	0.00653385
899.393	0.00656716
899.566	0.00646292
899.738	0.00637691
899.91	0.00630272
900.082	0.00618982
900.254	0.00599073
900.426	0.00594985
900.598	0.00588496
900.77	0.00591922
900.942	0.0059053
901.114	0.00587922
901.286	0.0059289
901.458	0.00603132
901.63	0.00615957
901.802	0.00624759
901.974	0.00632336
902.146	0.00634684
902.318	0.00648656
902.49	0.00643128
902.662	0.0064119
902.834	0.00626235
903.005	0.00635353
903.177	0.00631217
903.349	0.00642919
903.521	0.00634458
903.693	0.00643862
903.864	0.00650194
904.036	0.00659498
904.208	0.00650993
904.379	0.00656112
904.551	0.00637116
904.723	0.00628455
904.894	0.00612459
905.066	0.00610473
905.237	0.00605099
905.409	0.0059624
905.58	0.00585022
905.752	0.00582588
905.923	0.00578176
906.095	0.00576804
906.266	0.00566511
906.438	0.00552313
906.609	0.00544169
906.78	0.0053696
906.952	0.00541137
907.123	0.00541416
907.295	0.00551411
907.466	0.00551502
907.637	0.00559108
907.808	0.00559781
907.98	0.00564276
908.151	0.00560225
908.322	0.00563034
908.493	0.00566454
908.665	0.00557022
908.836	0.00568552
909.007	0.00581691
909.178	0.00580958
909.349	0.00595523
909.52	0.00604304
909.691	0.00598084
909.862	0.00616259
910.033	0.00597556
910.204	0.00593812
910.375	0.00597926
910.546	0.0058461
910.717	0.00570662
910.888	0.0056716
911.059	0.00554965
911.23	0.00563391
911.401	0.00560457
911.572	0.00545745
911.742	0.00545344
911.913	0.00557296
912.084	0.00558032
912.255	0.00557458
912.426	0.00553937
912.596	0.00551894
912.767	0.00556337
912.938	0.00558429
913.108	0.00550036
913.279	0.00540733
913.45	0.00540126
913.62	0.00532228
913.791	0.00527464
913.962	0.00535169
914.132	0.0052312
914.303	0.00518884
914.473	0.00520112
914.644	0.00517218
914.814	0.00522618
914.985	0.00532056
915.155	0.00522984
915.326	0.00529669
915.496	0.00527689
915.666	0.00528378
915.837	0.00543351
916.007	0.0054659
916.177	0.00539568
916.348	0.005428
916.518	0.00544502
916.688	0.0054489
916.858	0.00543791
917.029	0.00533654
917.199	0.00526575
917.369	0.00519674
917.539	0.00512778
917.709	0.00513112
917.88	0.00509663
918.05	0.00512239
918.22	0.00515294
918.39	0.00511382
918.56	0.00513743
918.73	0.00525571
918.9	0.00520345
919.07	0.00527877
919.24	0.00534682
919.41	0.00531796
919.58	0.00529088
919.75	0.00528464
919.92	0.00519625
920.09	0.0052199
920.26	0.00520851
920.429	0.00512348
920.599	0.00511345
920.769	0.00524723
920.939	0.00529415
921.109	0.0053531
921.278	0.00529138
921.448	0.00524714
921.618	0.00527331
921.787	0.00530734
921.957	0.00517768
922.127	0.00512398
922.296	0.00503941
922.466	0.00508875
922.636	0.0050219
922.805	0.00502774
922.975	0.00489489
923.144	0.00493529
923.314	0.00498606
923.483	0.00493973
923.653	0.00496267
923.822	0.0050357
923.992	0.00502598
924.161	0.00511469
924.331	0.00506916
924.5	0.00510674
924.669	0.00520223
924.839	0.00520761
925.008	0.00519037
925.177	0.00513326
925.347	0.00511878
925.516	0.00520424
925.685	0.00508817
925.854	0.0050854
926.023	0.0050374
926.193	0.0050809
926.362	0.00514381
926.531	0.0051199
926.7	0.00510547
926.869	0.00516998
927.038	0.00509015
927.207	0.00509613
927.376	0.00501955
927.545	0.0050314
927.715	0.00502826
927.884	0.00490421
928.052	0.00486806
928.221	0.00490146
928.39	0.00491263
928.559	0.00493543
928.728	0.00479586
928.897	0.00477651
929.066	0.00498357
929.235	0.00505635
929.404	0.00504381
929.572	0.00502699
929.741	0.00505722
929.91	0.0051916
930.079	0.00524611
930.247	0.0052161
930.416	0.00523907
930.585	0.00518568
930.753	0.00520039
930.922	0.00520596
931.091	0.0053473
931.259	0.00530848
931.428	0.00534166
931.596	0.00538856
931.765	0.00551169
931.934	0.005607
932.102	0.00567967
932.27	0.00557123
932.439	0.0058673
932.607	0.00580715
932.776	0.00577753
932.944	0.00570206
933.113	0.00574724
933.281	0.00585622
933.449	0.00591699
933.618	0.00575584
933.786	0.00573872
933.954	0.00573851
934.123	0.00602803
934.291	0.00605314
934.459	0.00597818
934.627	0.00604881
934.795	0.00616816
934.964	0.00624013
935.132	0.00630226
935.3	0.00625534
935.468	0.00626803
935.636	0.00652508
935.804	0.00646141
935.972	0.0065343
936.14	0.00683492
936.308	0.00724976
936.476	0.00756257
936.644	0.00782698
936.812	0.00795109
936.98	0.00836332
937.148	0.00844902
937.316	0.00869126
937.484	0.00851248
937.652	0.00882917
937.82	0.00936105
937.987	0.00968987
938.155	0.01022377
938.323	0.01073406
938.491	0.01106335
938.658	0.01160918
938.826	0.01191574
938.994	0.0123325
939.162	0.01277329
939.329	0.01319591
939.497	0.01407579
939.665	0.0146935
939.832	0.01520792
940	0.01592453
940.167	0.01611699
940.335	0.0164358
940.502	0.01700251
940.67	0.01731016
940.837	0.01750746
941.005	0.01824218
941.172	0.01843357
941.34	0.01891013
941.507	0.01983613
941.674	0.02005619
941.842	0.02048925
942.009	0.02103571
942.177	0.02148257
942.344	0.0225233
942.511	0.02328716
942.678	0.02355903
942.846	0.02400995
943.013	0.02446885
943.18	0.0251749
943.347	0.02560567
943.514	0.0253291
943.682	0.02565219
943.849	0.02547279
944.016	0.02535759
944.183	0.02498766
944.35	0.02521429
944.517	0.02505488
944.684	0.02524828
944.851	0.02438717
945.018	0.02458419
945.185	0.0250342
945.352	0.02539181
945.519	0.02490193
945.686	0.02514761
945.853	0.02459936
946.02	0.02468148
946.187	0.02470178
946.353	0.0243829
946.52	0.02404876
946.687	0.02365692
946.854	0.02323163
947.021	0.02314891
947.187	0.02306928
947.354	0.02256101
947.521	0.02165775
947.687	0.02128141
947.854	0.02111199
948.021	0.02097081
948.187	0.02095031
948.354	0.02038014
948.52	0.01995084
948.687	0.01974285
948.854	0.01937658
949.02	0.01872115
949.187	0.01860356
949.353	0.01830169
949.52	0.01851084
949.686	0.01867389
949.852	0.01866045
950.019	0.01858904
950.185	0.01849763
950.352	0.01765779
950.518	0.01747507
950.684	0.01681561
950.851	0.01631167
951.017	0.01598516
951.183	0.01527424
951.349	0.01467432
951.516	0.01427233
951.682	0.01348872
951.848	0.01298726
952.014	0.01264686
952.18	0.0120364
952.346	0.01169262
952.512	0.01160355
952.679	0.01148178
952.845	0.01135624
953.011	0.01118827
953.177	0.01098962
953.343	0.01052917
953.509	0.01053216
953.675	0.01017983
953.841	0.00999416
954.007	0.00969142
954.172	0.00908208
954.338	0.00868138
954.504	0.00868964
954.67	0.00835131
954.836	0.00837614
955.002	0.00825714
955.167	0.00807612
955.333	0.00796536
955.499	0.00796481
955.665	0.00775828
955.83	0.00753732
955.996	0.00744044
956.162	0.00714891
956.327	0.0071056
956.493	0.00715185
956.659	0.00658518
956.824	0.00663185
956.99	0.00642115
957.155	0.00612672
957.321	0.00579724
957.486	0.00574474
957.652	0.00561321
957.817	0.00602781
957.983	0.0058181
958.148	0.00599879
958.314	0.00592864
958.479	0.00580712
958.644	0.00539915
958.81	0.00515216
958.975	0.00484572
959.14	0.00500278
959.306	0.00474996
959.471	0.00452891
959.636	0.0047304
959.801	0.00454313
959.967	0.0045783
960.132	0.00452482
960.297	0.00423251
960.462	0.00400531
960.627	0.00393628
960.792	0.00373247
960.957	0.00373644
961.123	0.00394536
961.288	0.00384652
961.453	0.00396178
961.618	0.00424742
961.783	0.00418026
961.948	0.00395779
962.113	0.00412979
962.277	0.00392271
962.442	0.00390128
962.607	0.00365245
962.772	0.00322478
962.937	0.00337848
963.102	0.00337652
963.267	0.00324212
963.431	0.00308756
963.596	0.00301543
963.761	0.00301142
963.926	0.00336914
964.09	0.00326627
964.255	0.00346836
964.42	0.00344876
964.584	0.00335886
964.749	0.00342913
964.914	0.0036797
965.078	0.00362003
965.243	0.00351054
965.407	0.00333637
965.572	0.00320723
965.736	0.00327568
965.901	0.00299483
966.065	0.00285708
966.23	0.00282688
966.394	0.00281782
966.559	0.00281805
966.723	0.00294374
966.887	0.00307161
967.052	0.00316232
967.216	0.00295158
967.38	0.00277089
967.545	0.0030579
967.709	0.00309328
967.873	0.00334817
968.037	0.00345445
968.202	0.00351622
968.366	0.00379404
968.53	0.00385471
968.694	0.00373001
968.858	0.00380016
969.022	0.00362067
969.187	0.00339375
969.351	0.00346446
969.515	0.00335693
969.679	0.00371752
969.843	0.0038206
970.007	0.00392822
970.171	0.00406207
970.335	0.00410809
970.499	0.00427276
970.662	0.00407196
970.826	0.00373967
970.99	0.00367777
971.154	0.00367529
971.318	0.00340742
971.482	0.00366276
971.645	0.00351853
971.809	0.00362983
971.973	0.00389273
972.137	0.00380593
972.3	0.00388114
972.464	0.00421682
972.628	0.00405166
972.791	0.00397623
972.955	0.00390695
973.119	0.00384716
973.282	0.00409972
973.446	0.00400186
973.609	0.00408299
973.773	0.00431113
973.936	0.00448974
974.1	0.00484437
974.263	0.0050536
974.427	0.00500122
974.59	0.00508393
974.754	0.00486659
974.917	0.00468599
975.08	0.0046959
975.244	0.00479083
975.407	0.00433059
975.57	0.00406295
975.734	0.00418969
975.897	0.00426013
976.06	0.0041004
976.223	0.0041218
976.387	0.003859
976.55	0.00397547
976.713	0.00408366
976.876	0.0040685
977.039	0.00390211
977.202	0.00423101
977.365	0.00447765
977.528	0.00448938
977.692	0.00458924
977.855	0.00463422
978.018	0.00463065
978.181	0.00481829
978.344	0.00494403
978.506	0.00454868
978.669	0.00452818
978.832	0.00454252
978.995	0.00470694
979.158	0.00476454
979.321	0.00461116
979.484	0.00464405
979.646	0.00473617
979.809	0.00509533
979.972	0.00509884
980.135	0.0050685
980.297	0.00476121
980.46	0.00495587
980.623	0.00478463
980.786	0.00482189
980.948	0.00470463
981.111	0.00475124
981.273	0.00474062
981.436	0.00488229
981.599	0.00496591
981.761	0.00521373
981.924	0.00548224
982.086	0.00551826
982.249	0.00553286
982.411	0.00572076
982.573	0.00583088
982.736	0.00586775
982.898	0.00545178
983.061	0.00534436
983.223	0.00549356
983.385	0.00535029
983.548	0.0051777
983.71	0.00514665
983.872	0.00507946
984.034	0.00526957
984.197	0.00535322
984.359	0.00506622
984.521	0.00544301
984.683	0.00530991
984.845	0.00527167
985.008	0.00554525
985.17	0.00577066
985.332	0.00579166
985.494	0.00580916
985.656	0.00570451
985.818	0.00591773
985.98	0.00597252
986.142	0.00564949
986.304	0.00564006
986.466	0.00555792
986.628	0.00540765
986.79	0.00546084
986.952	0.00546564
987.113	0.00537237
987.275	0.0053614
987.437	0.00525479
987.599	0.00532132
987.761	0.00557211
987.922	0.00564737
988.084	0.00557919
988.246	0.00577763
988.408	0.00570598
988.569	0.00576324
988.731	0.00571857
988.893	0.00566874
989.054	0.00557203
989.216	0.00586384
989.377	0.00585029
989.539	0.0059369
989.701	0.00605709
989.862	0.00568663
990.024	0.00575189
990.185	0.00566467
990.347	0.00526116
990.508	0.00561109
990.669	0.00539843
990.831	0.00507716
990.992	0.00506742
991.154	0.00522344
991.315	0.00541589
991.476	0.00578721
991.638	0.00531891
991.799	0.00564367
991.96	0.0058021
992.121	0.00608723
992.283	0.00586908
992.444	0.00576902
992.605	0.00557507
992.766	0.00580249
992.927	0.00600642
993.088	0.00592239
993.249	0.0062316
993.41	0.00637089
993.572	0.00668759
993.733	0.00702544
993.894	0.00690286
994.055	0.00649802
994.216	0.00682491
994.376	0.00673218
994.537	0.0065722
994.698	0.00637384
994.859	0.00632198
995.02	0.00648957
995.181	0.00674474
995.342	0.00625161
995.503	0.00637289
995.663	0.00677624
995.824	0.00676142
995.985	0.00708994
996.146	0.0068957
996.306	0.0071932
996.467	0.00735993
996.628	0.00691415
996.788	0.0064981
996.949	0.00647458
997.11	0.00637741
997.27	0.0066634
997.431	0.00678477
997.591	0.00717062
997.752	0.00741883
997.912	0.00764019
998.073	0.00768581
998.233	0.00770422
998.394	0.0075918
998.554	0.0072712
998.714	0.00735074
998.875	0.00761192
999.035	0.00747091
999.196	0.00748425
999.356	0.0068565
999.516	0.00717743
999.676	0.00721196
999.837	0.00726127
999.997	0.00723499
1000.157	0.00767067
1000.317	0.00791614
1000.477	0.00816737
1000.638	0.00814614
1000.798	0.00848448
1000.958	0.00837566
1001.118	0.00825085
1001.278	0.00802251
1001.438	0.00749115
1001.598	0.00770244
1001.758	0.00758617
1001.918	0.00717171
1002.078	0.00734989
1002.238	0.00709129
1002.398	0.00746274
1002.558	0.00770029
1002.718	0.00709293
1002.878	0.00670131
1003.037	0.00686139
1003.197	0.00693013
1003.357	0.00747375
1003.517	0.0075361
1003.677	0.00763421
1003.836	0.00834569
1003.996	0.00884739
1004.156	0.00919143
1004.315	0.00851014
1004.475	0.00826055
1004.635	0.00820513
1004.794	0.00891686
1004.954	0.00913877
1005.114	0.00897453
1005.273	0.00824563
1005.433	0.00860427
1005.592	0.00898024
1005.752	0.00848142
1005.911	0.00779758
1006.071	0.00752536
1006.23	0.00736811
1006.389	0.00800651
1006.549	0.00789322
1006.708	0.00755691
1006.868	0.00863732
1007.027	0.00850306
1007.186	0.00836749
1007.345	0.00841145
1007.505	0.00806219
1007.664	0.00847184
1007.823	0.00912408
1007.982	0.00834576
1008.142	0.00841297
1008.301	0.00874612
1008.46	0.00924474
1008.619	0.00913059
1008.778	0.00958928
1008.937	0.00911527
1009.096	0.00943055
1009.255	0.00953211
1009.414	0.00992306
1009.573	0.00986359
1009.732	0.01089876
1009.891	0.0102716
1010.05	0.01059502
1010.209	0.01119
1010.368	0.01060157
1010.527	0.00981248
1010.686	0.00931661
1010.845	0.00889789
1011.003	0.00915144
1011.162	0.00875304
1011.321	0.00843484
1011.48	0.00937841
1011.638	0.00944356
1011.797	0.01026189
1011.956	0.01033528
1012.115	0.00995551
1012.273	0.01018837
1012.432	0.010085
1012.59	0.00997488
1012.749	0.01147223
1012.908	0.01119905
1013.066	0.01084276
1013.225	0.0115025
1013.383	0.0125583
1013.542	0.01234399
1013.7	0.01203716
1013.859	0.01058236
1014.017	0.01197232
1014.175	0.01348077
1014.334	0.01298
1014.492	0.01239126
1014.65	0.01268305
1014.809	0.01392464
1014.967	0.01496152
1015.125	0.01371969
1015.284	0.01312166
1015.442	0.0137869
1015.6	0.01365734
1015.758	0.01264999
1015.916	0.0120008
1016.075	0.01172132
1016.233	0.01203534
1016.391	0.01132318
1016.549	0.01117341
1016.707	0.01125728
1016.865	0.01204775
1017.023	0.01290029
1017.181	0.0121969
1017.339	0.01145609
1017.497	0.0121664
1017.655	0.01243058
1017.813	0.01314432
1017.971	0.01346246
1018.129	0.01321973
1018.286	0.01461644
1018.444	0.01524432
1018.602	0.01468896
1018.76	0.01514409
1018.918	0.01501413
1019.075	0.01646726
1019.233	0.01554802
1019.391	0.01496909
1019.549	0.01516465
1019.706	0.01544136
1019.864	0.01594686
1020.022	0.01652052
1020.179	0.01495494
1020.337	0.01638302
1020.494	0.01576803
1020.652	0.01666245
1020.809	0.01778385
1020.967	0.0173997
1021.124	0.01762425
1021.282	0.0185111
1021.439	0.01884804
1021.597	0.01957583
1021.754	0.01928342
1021.911	0.01925553
1022.069	0.01982465
1022.226	0.01931407
1022.384	0.01876839
1022.541	0.01824443
1022.698	0.01847513
1022.855	0.01867752
1023.013	0.01944274
1023.17	0.01976833
1023.327	0.02015064
1023.484	0.02219529
1023.641	0.02223924
1023.798	0.02297544
1023.956	0.02424175
1024.113	0.02287941
1024.27	0.02337647
1024.427	0.02373233
1024.584	0.0220042
1024.741	0.02235364
1024.898	0.02072065
1025.055	0.01897211
1025.212	0.01994092
1025.369	0.01942252
1025.525	0.01909251
1025.682	0.02123863
1025.839	0.02166211
1025.996	0.02399319
1026.153	0.02632272
1026.31	0.02662299
1026.466	0.0263887
1026.623	0.02825079
1026.78	0.02661071
1026.937	0.02719438
1027.093	0.02730927
1027.25	0.02477736
1027.407	0.0260274
1027.563	0.02707001
1027.72	0.02486695
1027.876	0.02481761
1028.033	0.02560236
1028.19	0.02780144
1028.346	0.02993224
1028.503	0.02976781
1028.659	0.02738494
1028.816	0.0290676
1028.972	0.02752025
1029.128	0.02796033
1029.285	0.02539334
1029.441	0.02742717
1029.598	0.02478047
1029.754	0.02914024
1029.91	0.02914504
1030.067	0.03179199
1030.223	0.03137536
1030.379	0.03229619
1030.535	0.02953748
1030.691	0.03051515
1030.848	0.02600704
1031.004	0.02463048
1031.16	0.02550076
1031.316	0.0259102
1031.472	0.02557114
1031.628	0.0274462
1031.784	0.03191522
1031.94	0.03624274
1032.096	0.0376998
1032.252	0.03762372
1032.408	0.03663877
1032.564	0.0376128
1032.72	0.03559823
1032.876	0.03268138
1033.032	0.03141179
1033.188	0.02827513
1033.344	0.03144547
1033.5	0.03621061
1033.655	0.03622639
1033.811	0.03842123
1033.967	0.04057839
