Data from 1_mm_pl_20pc_Absorbance__0__16-34-49-474.txt Node

Date: Wed Mar 08 16:34:49 CET 2023
User: Ange
Spectrometer: FLMT08341
Trigger mode: 0
Integration Time (sec): 1.000000E-2
Scans to average: 400
Electric dark correction enabled: true
Nonlinearity correction enabled: false
Boxcar width: 3
XAxis mode: Wavelengths
Number of Pixels in Spectrum: 3648
>>>>>Begin Spectral Data<<<<<
345.271	0.01718179
345.487	0.01098854
345.704	0.00641924
345.921	0.01265927
346.137	0.01080777
346.354	0.02403852
346.571	0.00881362
346.787	0.00271382
347.004	-0.08144297
347.22	-0.12200812
347.437	-0.1085196
347.653	-0.07936357
347.87	-0.07686576
348.086	-0.23071357
348.303	-0.42160044
348.519	0.35104156
348.736	0.35694633
348.952	0.3673218
349.169	0.39344972
349.385	0.41622788
349.601	0.4158305
349.818	0.40975592
350.034	0.40752834
350.251	0.40987099
350.467	0.41568655
350.683	0.40118773
350.9	0.40016468
351.116	0.40052212
351.332	0.40056973
351.549	0.41320235
351.765	0.4258067
351.981	0.43390728
352.197	0.45326939
352.414	0.472364
352.63	0.48502554
352.846	0.49899235
353.062	0.49147022
353.278	0.48323754
353.495	0.49754416
353.711	0.50010991
353.927	0.5061943
354.143	0.50723257
354.359	0.50055204
354.575	0.49999507
354.792	0.51024886
355.008	0.49582908
355.224	0.48682792
355.44	0.47376124
355.656	0.46878809
355.872	0.47630185
356.088	0.50524185
356.304	0.51142241
356.52	0.51570693
356.736	0.5242041
356.952	0.53611027
357.168	0.54309922
357.384	0.54635911
357.6	0.52599307
357.816	0.53564207
358.032	0.54779461
358.248	0.56871524
358.464	0.57036307
358.679	0.57997148
358.895	0.58847819
359.111	0.604012
359.327	0.59081575
359.543	0.59254893
359.759	0.5937655
359.974	0.59582495
360.19	0.59175892
360.406	0.59015562
360.622	0.58788421
360.838	0.58771597
361.053	0.59162497
361.269	0.59694682
361.485	0.60359891
361.701	0.60952154
361.916	0.60524941
362.132	0.60722679
362.348	0.61440621
362.563	0.61956235
362.779	0.6128895
362.995	0.61837477
363.21	0.62678159
363.426	0.63383234
363.641	0.63557566
363.857	0.6465591
364.073	0.64270486
364.288	0.63816101
364.504	0.65061775
364.719	0.6526496
364.935	0.65365904
365.15	0.65749801
365.366	0.65992121
365.581	0.67550052
365.797	0.68158538
366.012	0.67053892
366.228	0.66465262
366.443	0.67923337
366.658	0.68258743
366.874	0.6739258
367.089	0.68073567
367.305	0.68917478
367.52	0.69520147
367.735	0.69993226
367.951	0.69224952
368.166	0.69810389
368.381	0.71306624
368.597	0.70846277
368.812	0.71699374
369.027	0.72400816
369.243	0.72931172
369.458	0.75241801
369.673	0.75685533
369.888	0.76137885
370.104	0.75148253
370.319	0.75263171
370.534	0.7474988
370.749	0.75233585
370.964	0.74968201
371.179	0.75060891
371.395	0.74487524
371.61	0.75615467
371.825	0.7474468
372.04	0.75493412
372.255	0.74915998
372.47	0.7421812
372.685	0.735029
372.9	0.7334289
373.115	0.72880136
373.33	0.7368911
373.545	0.73824152
373.76	0.74713464
373.975	0.74865594
374.19	0.7519608
374.405	0.76001087
374.62	0.77906595
374.835	0.7928015
375.05	0.79603118
375.265	0.79833561
375.48	0.80254126
375.695	0.82526734
375.91	0.82285949
376.125	0.80554439
376.339	0.79136234
376.554	0.79402976
376.769	0.79738484
376.984	0.79981192
377.199	0.7985389
377.414	0.80214586
377.628	0.81764113
377.843	0.82997022
378.058	0.83482395
378.273	0.84168111
378.487	0.84728562
378.702	0.85272539
378.917	0.85790717
379.131	0.85052753
379.346	0.84162794
379.561	0.83668797
379.775	0.83321455
379.99	0.82562947
380.205	0.81563274
380.419	0.80736908
380.634	0.80207367
380.848	0.81391334
381.063	0.81905891
381.278	0.82966796
381.492	0.82740507
381.707	0.84010005
381.921	0.84644617
382.136	0.86393556
382.35	0.86015143
382.565	0.85780398
382.779	0.85674831
382.994	0.86493209
383.208	0.85673848
383.422	0.86921299
383.637	0.86737906
383.851	0.87709775
384.066	0.88771961
384.28	0.89348459
384.494	0.89830725
384.709	0.90551366
384.923	0.90544674
385.137	0.89855404
385.352	0.89724863
385.566	0.89970778
385.78	0.89985734
385.995	0.89788296
386.209	0.89648578
386.423	0.90365296
386.637	0.91560565
386.852	0.91087796
387.066	0.9103981
387.28	0.90512307
387.494	0.91674471
387.708	0.92085884
387.923	0.91663007
388.137	0.92345794
388.351	0.93295988
388.565	0.94395289
388.779	0.95254105
388.993	0.96511756
389.207	0.97186743
389.421	0.97965268
389.635	0.97436806
389.85	0.97190096
390.064	0.97080973
390.278	0.97304227
390.492	0.97179423
390.706	0.97374745
390.92	0.9738365
391.134	0.98440085
391.348	1.00352876
391.561	0.99814694
391.775	0.99954042
391.989	0.99174003
392.203	0.9988999
392.417	1.00400116
392.631	1.0131595
392.845	1.00576625
393.059	1.02241548
393.273	1.01938838
393.486	1.01845046
393.7	1.00852782
393.914	1.01753475
394.128	1.01125805
394.342	1.00873388
394.555	0.99557195
394.769	1.00047416
394.983	1.00904267
395.197	1.01895365
395.41	1.01607666
395.624	1.02497412
395.838	1.0280794
396.051	1.04937273
396.265	1.04789637
396.479	1.05193176
396.692	1.05439462
396.906	1.04977981
397.12	1.04543957
397.333	1.05563089
397.547	1.04815555
397.76	1.059726
397.974	1.06097487
398.187	1.06724787
398.401	1.07969638
398.614	1.08437263
398.828	1.08303311
399.041	1.08710392
399.255	1.08551448
399.468	1.08704868
399.682	1.08673941
399.895	1.08961712
400.109	1.09071185
400.322	1.08866678
400.536	1.08211953
400.749	1.09292203
400.962	1.09696283
401.176	1.09465876
401.389	1.09252699
401.602	1.08042818
401.816	1.08993061
402.029	1.10225915
402.242	1.09697178
402.456	1.09695672
402.669	1.09355191
402.882	1.08478195
403.095	1.10456678
403.309	1.101726
403.522	1.10133986
403.735	1.0991472
403.948	1.10255257
404.161	1.1232953
404.375	1.13310357
404.588	1.13315601
404.801	1.13782963
405.014	1.13602078
405.227	1.14818653
405.44	1.15288106
405.653	1.15608396
405.866	1.14982201
406.079	1.14754925
406.293	1.14699526
406.506	1.14840741
406.719	1.14518876
406.932	1.1422722
407.145	1.13126194
407.358	1.14700048
407.571	1.14152746
407.784	1.14480814
407.996	1.15052675
408.209	1.14482145
408.422	1.14182598
408.635	1.14724819
408.848	1.14734241
409.061	1.14414522
409.274	1.14255595
409.487	1.13876646
409.7	1.14410095
409.912	1.1498171
410.125	1.14953075
410.338	1.14826471
410.551	1.15203914
410.764	1.15410156
410.976	1.15629232
411.189	1.15593131
411.402	1.15107112
411.615	1.15635932
411.827	1.15859648
412.04	1.16278025
412.253	1.16055472
412.465	1.15737053
412.678	1.15653679
412.891	1.16313762
413.103	1.14971977
413.316	1.14608316
413.529	1.15148226
413.741	1.15746819
413.954	1.1631343
414.166	1.16625321
414.379	1.16423929
414.591	1.17349329
414.804	1.17016039
415.016	1.16665799
415.229	1.16190238
415.441	1.15513936
415.654	1.15891876
415.866	1.1610728
416.079	1.16288154
416.291	1.16146234
416.504	1.16775125
416.716	1.17132902
416.928	1.17544764
417.141	1.16998903
417.353	1.16980808
417.566	1.16076817
417.778	1.16421439
417.99	1.15161678
418.203	1.14430431
418.415	1.14395761
418.627	1.14620414
418.839	1.14551098
419.052	1.15612347
419.264	1.15727488
419.476	1.16325391
419.688	1.16755773
419.901	1.1678826
420.113	1.16392729
420.325	1.16072529
420.537	1.15183119
420.749	1.15357603
420.961	1.15364862
421.174	1.15167972
421.386	1.14725966
421.598	1.14526164
421.81	1.14331863
422.022	1.14126685
422.234	1.13780252
422.446	1.13336349
422.658	1.13120108
422.87	1.13162596
423.082	1.13085693
423.294	1.12908816
423.506	1.13126444
423.718	1.12891648
423.93	1.12382363
424.142	1.12013741
424.354	1.11551448
424.566	1.11314591
424.778	1.11286235
424.99	1.10876124
425.202	1.10398522
425.414	1.10523791
425.625	1.10773796
425.837	1.10282863
426.049	1.10366654
426.261	1.09946563
426.473	1.09420175
426.684	1.09306865
426.896	1.09339929
427.108	1.08582682
427.32	1.08901366
427.531	1.08349404
427.743	1.0827988
427.955	1.0872465
428.167	1.08313539
428.378	1.07795346
428.59	1.07676697
428.802	1.07243869
429.013	1.06857359
429.225	1.06407252
429.436	1.05755432
429.648	1.05810102
429.86	1.05771157
430.071	1.05653385
430.283	1.05496227
430.494	1.05270117
430.706	1.0510539
430.917	1.04732889
431.129	1.04340303
431.34	1.03762631
431.552	1.03497923
431.763	1.03015593
431.975	1.03029746
432.186	1.02407084
432.398	1.02118656
432.609	1.01336744
432.821	1.01174794
433.032	1.00798965
433.243	1.00349732
433.455	0.99833088
433.666	0.99705647
433.877	0.99641445
434.089	0.99306421
434.3	0.98711618
434.511	0.9808273
434.723	0.97737844
434.934	0.9707904
435.145	0.96396683
435.356	0.9566713
435.568	0.95449858
435.779	0.95067209
435.99	0.94539855
436.201	0.94046652
436.412	0.93737806
436.624	0.93670291
436.835	0.93521412
437.046	0.93349521
437.257	0.9302786
437.468	0.93126881
437.679	0.930681
437.89	0.92781401
438.101	0.92474771
438.312	0.92106561
438.523	0.91634586
438.734	0.91298282
438.945	0.90793346
439.156	0.90165217
439.367	0.89851634
439.578	0.8951316
439.789	0.88867452
440	0.88527954
440.211	0.87977424
440.422	0.87574614
440.633	0.87363075
440.844	0.86798137
441.055	0.86236992
441.266	0.86022492
441.477	0.85426747
441.687	0.85121303
441.898	0.84700863
442.109	0.84116849
442.32	0.83760767
442.531	0.83163074
442.741	0.82461923
442.952	0.82090173
443.163	0.81644953
443.374	0.81092945
443.584	0.80625973
443.795	0.80203729
444.006	0.79871553
444.216	0.79504683
444.427	0.78902422
444.638	0.78416319
444.848	0.78012726
445.059	0.7756129
445.27	0.77044562
445.48	0.76538174
445.691	0.76155663
445.901	0.75870211
446.112	0.75445038
446.323	0.74895076
446.533	0.74468773
446.744	0.73977874
446.954	0.7349936
447.165	0.73000138
447.375	0.72636345
447.586	0.72263787
447.796	0.71912548
448.006	0.71426803
448.217	0.71094163
448.427	0.70695948
448.638	0.7024732
448.848	0.69646572
449.058	0.69114706
449.269	0.68693655
449.479	0.68293343
449.689	0.67787335
449.9	0.67371555
450.11	0.66945144
450.32	0.66626637
450.531	0.66145847
450.741	0.65627497
450.951	0.65232116
451.161	0.6476894
451.372	0.64343404
451.582	0.64057993
451.792	0.63541095
452.002	0.63151784
452.212	0.62713995
452.422	0.62262066
452.633	0.61835622
452.843	0.61468666
453.053	0.60858963
453.263	0.60492804
453.473	0.60062957
453.683	0.59736611
453.893	0.59265244
454.103	0.58945042
454.313	0.58478897
454.523	0.58097599
454.733	0.57665917
454.943	0.5732704
455.153	0.56926683
455.363	0.56558403
455.573	0.56120566
455.783	0.55787589
455.993	0.55395059
456.203	0.55077135
456.413	0.5466549
456.623	0.54240295
456.833	0.53949329
457.042	0.53565466
457.252	0.53152821
457.462	0.52769501
457.672	0.52389694
457.882	0.52026726
458.091	0.51659719
458.301	0.51201451
458.511	0.50842874
458.721	0.50490662
458.931	0.50138445
459.14	0.49766261
459.35	0.49464276
459.56	0.49159719
459.769	0.48875736
459.979	0.4851358
460.189	0.48167399
460.398	0.478157
460.608	0.47516344
460.817	0.47173816
461.027	0.4684421
461.237	0.46493461
461.446	0.46194194
461.656	0.45931846
461.865	0.45640971
462.075	0.45314186
462.284	0.450405
462.494	0.44720995
462.703	0.44390023
462.913	0.44094502
463.122	0.43763234
463.332	0.43458001
463.541	0.43201032
463.751	0.42883484
463.96	0.42615147
464.169	0.42364106
464.379	0.42127938
464.588	0.41864429
464.797	0.41603098
465.007	0.41324119
465.216	0.41071449
465.425	0.40827176
465.635	0.40566977
465.844	0.40287508
466.053	0.40020073
466.263	0.39768494
466.472	0.39492557
466.681	0.39208097
466.89	0.3891769
467.099	0.38651346
467.309	0.38401725
467.518	0.38177868
467.727	0.37948552
467.936	0.37717218
468.145	0.37513806
468.354	0.37312087
468.563	0.37087727
468.772	0.36865727
468.982	0.36637407
469.191	0.36424595
469.4	0.36213323
469.609	0.36000692
469.818	0.35814408
470.027	0.35617803
470.236	0.35412039
470.445	0.35214198
470.654	0.34993609
470.863	0.34798484
471.072	0.34607161
471.28	0.34382113
471.489	0.34216478
471.698	0.3404534
471.907	0.33873735
472.116	0.33725704
472.325	0.33551235
472.534	0.33387893
472.743	0.33209502
472.951	0.33053656
473.16	0.3289259
473.369	0.327365
473.578	0.32586054
473.786	0.32450708
473.995	0.32295255
474.204	0.3218263
474.413	0.320321
474.621	0.31891258
474.83	0.31764908
475.039	0.31621613
475.247	0.31482666
475.456	0.31348869
475.665	0.3121847
475.873	0.31081005
476.082	0.30936482
476.291	0.30806226
476.499	0.30692175
476.708	0.30555973
476.916	0.30447766
477.125	0.30332363
477.333	0.30221926
477.542	0.30114029
477.75	0.29990478
477.959	0.29894049
478.167	0.29813542
478.376	0.29722971
478.584	0.29617066
478.793	0.29523209
479.001	0.29435429
479.209	0.29357532
479.418	0.29268756
479.626	0.29172592
479.834	0.29072549
480.043	0.28996494
480.251	0.28909228
480.459	0.28836887
480.668	0.28767217
480.876	0.28686192
481.084	0.28612306
481.293	0.2854471
481.501	0.28463398
481.709	0.28403123
481.917	0.28339983
482.125	0.28269751
482.334	0.28217674
482.542	0.28164399
482.75	0.28107767
482.958	0.28069562
483.166	0.28032024
483.374	0.27978296
483.583	0.27947228
483.791	0.27913024
483.999	0.27869363
484.207	0.2783092
484.415	0.27791681
484.623	0.27741584
484.831	0.27711579
485.039	0.27673833
485.247	0.27628177
485.455	0.27595177
485.663	0.27570132
485.871	0.27549139
486.079	0.27527474
486.287	0.27506641
486.495	0.2747872
486.702	0.2746057
486.91	0.27447341
487.118	0.27424716
487.326	0.27402575
487.534	0.27384484
487.742	0.27376144
487.95	0.27368447
488.157	0.27361513
488.365	0.27364191
488.573	0.27368361
488.781	0.27371132
488.988	0.27384779
489.196	0.27385587
489.404	0.27391866
489.612	0.27401981
489.819	0.27410817
490.027	0.27415069
490.235	0.27422211
490.442	0.2742971
490.65	0.27437512
490.857	0.27462168
491.065	0.27471052
491.273	0.27482787
491.48	0.27504998
491.688	0.27521821
491.895	0.27544392
492.103	0.27570115
492.31	0.27592637
492.518	0.27622598
492.725	0.27653383
492.933	0.27681529
493.14	0.27716492
493.348	0.27742536
493.555	0.27776286
493.763	0.27805043
493.97	0.27838964
494.177	0.27877563
494.385	0.27927326
494.592	0.27976828
494.8	0.28027643
495.007	0.28073541
495.214	0.28122161
495.422	0.28175743
495.629	0.28219956
495.836	0.28261
496.043	0.28308983
496.251	0.28361718
496.458	0.2841645
496.665	0.28474066
496.872	0.2852189
497.08	0.28583485
497.287	0.28637375
497.494	0.28693213
497.701	0.2874356
497.908	0.288067
498.115	0.28863419
498.322	0.28934999
498.53	0.28989283
498.737	0.29056999
498.944	0.2912436
499.151	0.29201633
499.358	0.29270511
499.565	0.29339016
499.772	0.2940636
499.979	0.29492897
500.186	0.29575542
500.393	0.29654208
500.6	0.29733866
500.807	0.29817056
501.014	0.29903439
501.221	0.29983722
501.427	0.30054163
501.634	0.30136659
501.841	0.30215104
502.048	0.30290571
502.255	0.30353373
502.462	0.30437942
502.669	0.30529084
502.875	0.30619106
503.082	0.30700691
503.289	0.30802418
503.496	0.30902203
503.702	0.310023
503.909	0.31095621
504.116	0.31184154
504.323	0.31274997
504.529	0.31373301
504.736	0.31455215
504.943	0.31540703
505.149	0.31646662
505.356	0.31748252
505.563	0.31857893
505.769	0.3197563
505.976	0.32078511
506.182	0.32196576
506.389	0.32311215
506.595	0.32432308
506.802	0.32541445
507.008	0.32647916
507.215	0.3275001
507.421	0.32865965
507.628	0.32972762
507.834	0.33086759
508.041	0.33188538
508.247	0.33292386
508.454	0.33403844
508.66	0.33510685
508.866	0.33623751
509.073	0.33739235
509.279	0.33851362
509.486	0.33967114
509.692	0.34100925
509.898	0.34226075
510.105	0.34352471
510.311	0.3446714
510.517	0.3459279
510.723	0.34718233
510.93	0.34834395
511.136	0.34951995
511.342	0.35074124
511.548	0.3520431
511.754	0.3534408
511.961	0.35473246
512.167	0.35601257
512.373	0.35732378
512.579	0.35861757
512.785	0.35990748
512.991	0.36111087
513.197	0.36234903
513.404	0.36367545
513.61	0.36503215
513.816	0.36637236
514.022	0.36775883
514.228	0.36910254
514.434	0.37052242
514.64	0.37193672
514.846	0.37332334
515.052	0.37474041
515.258	0.37609905
515.464	0.37740923
515.669	0.37881026
515.875	0.38023271
516.081	0.38157199
516.287	0.38297647
516.493	0.38444133
516.699	0.38588014
516.905	0.3873278
517.111	0.38871727
517.316	0.39023354
517.522	0.3917302
517.728	0.39326591
517.934	0.39469375
518.139	0.39623614
518.345	0.3977401
518.551	0.39937168
518.757	0.40088834
518.962	0.40242958
519.168	0.40390112
519.374	0.40531549
519.579	0.4067669
519.785	0.40832714
519.991	0.40982438
520.196	0.41126885
520.402	0.41272894
520.607	0.41426802
520.813	0.41605107
521.018	0.41766536
521.224	0.419226
521.429	0.42086277
521.635	0.42248915
521.84	0.42404687
522.046	0.42575818
522.251	0.42726294
522.457	0.42890501
522.662	0.43054453
522.868	0.43213468
523.073	0.43369616
523.279	0.43535752
523.484	0.43681685
523.689	0.43837876
523.895	0.43999234
524.1	0.44155318
524.305	0.44314801
524.511	0.44482789
524.716	0.44650287
524.921	0.44819664
525.126	0.44994595
525.332	0.45168418
525.537	0.45344463
525.742	0.45520269
525.947	0.45694475
526.153	0.45861245
526.358	0.46028254
526.563	0.46201845
526.768	0.4636938
526.973	0.46538658
527.178	0.46713017
527.383	0.46887366
527.588	0.47064315
527.794	0.47230077
527.999	0.47392629
528.204	0.47570197
528.409	0.47739431
528.614	0.47917743
528.819	0.48094151
529.024	0.48270961
529.229	0.48456388
529.434	0.48645405
529.639	0.48818432
529.843	0.49000647
530.048	0.49180135
530.253	0.49357981
530.458	0.49538567
530.663	0.49713671
530.868	0.49899167
531.073	0.50073253
531.278	0.50250154
531.482	0.5042238
531.687	0.50599419
531.892	0.50773742
532.097	0.50951865
532.302	0.51132277
532.506	0.51318369
532.711	0.51496499
532.916	0.51679385
533.12	0.51855953
533.325	0.52039926
533.53	0.5223899
533.734	0.5241436
533.939	0.52596867
534.144	0.52794557
534.348	0.5298509
534.553	0.53185457
534.757	0.53367214
534.962	0.53545032
535.167	0.53746684
535.371	0.53940632
535.576	0.5413664
535.78	0.54317891
535.985	0.54500201
536.189	0.54689805
536.394	0.54879715
536.598	0.55051164
536.803	0.55236288
537.007	0.55416003
537.211	0.55617865
537.416	0.55810079
537.62	0.56003011
537.825	0.56197597
538.029	0.56419517
538.233	0.56610139
538.438	0.56811531
538.642	0.56986481
538.846	0.57181942
539.05	0.57374504
539.255	0.57556626
539.459	0.57736601
539.663	0.57927969
539.867	0.58118094
540.072	0.5831274
540.276	0.5849493
540.48	0.58698627
540.684	0.58885237
540.888	0.59081171
541.092	0.59272676
541.297	0.59458445
541.501	0.5965697
541.705	0.59864506
541.909	0.6005425
542.113	0.60259177
542.317	0.6045314
542.521	0.60648202
542.725	0.60845475
542.929	0.61043043
543.133	0.61237891
543.337	0.61441638
543.541	0.616367
543.745	0.61818347
543.949	0.62017299
544.153	0.62204571
544.357	0.62386886
544.56	0.62590703
544.764	0.62783221
544.968	0.62973925
545.172	0.63164097
545.376	0.63364893
545.58	0.63573721
545.783	0.63788245
545.987	0.63964048
546.191	0.64153021
546.395	0.64356164
546.598	0.64559038
546.802	0.64747388
547.006	0.649431
547.21	0.65110632
547.413	0.65319045
547.617	0.65520925
547.821	0.65706082
548.024	0.65911966
548.228	0.66107516
548.431	0.6630531
548.635	0.66511329
548.839	0.66690605
549.042	0.66882351
549.246	0.67076321
549.449	0.67259155
549.653	0.67453143
549.856	0.67626917
550.06	0.6781642
550.263	0.68014763
550.467	0.68201643
550.67	0.68404926
550.874	0.68599685
551.077	0.68805813
551.28	0.69030686
551.484	0.692472
551.687	0.69451544
551.891	0.69667655
552.094	0.69856338
552.297	0.70064615
552.501	0.70273046
552.704	0.70466821
552.907	0.70651716
553.11	0.70835079
553.314	0.71021272
553.517	0.71201427
553.72	0.71392051
553.923	0.71576426
554.127	0.71767981
554.33	0.719416
554.533	0.72141182
554.736	0.72315799
554.939	0.72518756
555.142	0.72716298
555.345	0.72913413
555.549	0.73118192
555.752	0.73324764
555.955	0.7352421
556.158	0.73739116
556.361	0.73935544
556.564	0.74117788
556.767	0.74299285
556.97	0.74481419
557.173	0.74685378
557.376	0.74883365
557.579	0.75059671
557.782	0.75252691
557.984	0.75459398
558.187	0.75656576
558.39	0.75840401
558.593	0.76034888
558.796	0.76207899
558.999	0.76385323
559.202	0.7656866
559.404	0.7674352
559.607	0.76930127
559.81	0.77112578
560.013	0.77281651
560.216	0.7747281
560.418	0.77687398
560.621	0.77877601
560.824	0.78071009
561.026	0.78261976
561.229	0.78454936
561.432	0.78647135
561.634	0.78839893
561.837	0.79004727
562.04	0.79199421
562.242	0.79386494
562.445	0.79566503
562.647	0.79749685
562.85	0.79934057
563.053	0.80110643
563.255	0.80304546
563.458	0.80482976
563.66	0.80668922
563.863	0.80870123
564.065	0.81077508
564.268	0.81260085
564.47	0.81447846
564.672	0.81615879
564.875	0.81811822
565.077	0.81986766
565.28	0.82141603
565.482	0.82309876
565.684	0.8246783
565.887	0.82646729
566.089	0.82836995
566.291	0.82992406
566.494	0.83169371
566.696	0.83319955
566.898	0.83496515
567.1	0.83690337
567.303	0.83859739
567.505	0.84034079
567.707	0.84184838
567.909	0.84333112
568.111	0.8452332
568.314	0.84694676
568.516	0.84865395
568.718	0.8503927
568.92	0.85210894
569.122	0.85401676
569.324	0.85588025
569.526	0.85755842
569.728	0.85934636
569.93	0.86090341
570.132	0.86238367
570.334	0.86387632
570.536	0.86536559
570.738	0.8668735
570.94	0.86845332
571.142	0.87002625
571.344	0.8714848
571.546	0.87307757
571.748	0.87490494
571.95	0.87650791
572.152	0.87811724
572.354	0.87958838
572.555	0.88122663
572.757	0.88315211
572.959	0.88477849
573.161	0.88590175
573.363	0.88755702
573.564	0.88943079
573.766	0.89099768
573.968	0.8924574
574.17	0.89356942
574.371	0.89524531
574.573	0.89700964
574.775	0.89835137
574.976	0.89956208
575.178	0.90106794
575.38	0.90222661
575.581	0.90364864
575.783	0.90503863
575.985	0.90648453
576.186	0.90809038
576.388	0.90956704
576.589	0.91091617
576.791	0.91251357
576.992	0.91419532
577.194	0.91552277
577.395	0.91672296
577.597	0.91808091
577.798	0.9195296
578	0.92099232
578.201	0.92231454
578.402	0.92361261
578.604	0.92479847
578.805	0.92645203
579.007	0.92768605
579.208	0.92891564
579.409	0.93034978
579.611	0.93155761
579.812	0.93298469
580.013	0.93438415
580.215	0.93524525
580.416	0.93654502
580.617	0.93776152
580.818	0.93896933
581.019	0.94018384
581.221	0.94128436
581.422	0.94251691
581.623	0.94413111
581.824	0.94516181
582.025	0.94624964
582.226	0.94740266
582.428	0.94871806
582.629	0.94992992
582.83	0.95087627
583.031	0.95178852
583.232	0.95338125
583.433	0.9547434
583.634	0.95578568
583.835	0.95680348
584.036	0.95783453
584.237	0.95916833
584.438	0.96035792
584.639	0.96095035
584.84	0.96200254
585.041	0.96294341
585.242	0.96408842
585.442	0.96520188
585.643	0.96637111
585.844	0.9673092
586.045	0.96873781
586.246	0.96952417
586.447	0.97052085
586.647	0.97124107
586.848	0.97210398
587.049	0.97288638
587.25	0.97370049
587.45	0.97423349
587.651	0.97525095
587.852	0.97621812
588.053	0.97742617
588.253	0.97814125
588.454	0.97909146
588.655	0.9799328
588.855	0.98069373
589.056	0.98147301
589.256	0.98233567
589.457	0.98295231
589.658	0.98408002
589.858	0.98470489
590.059	0.98559269
590.259	0.98656752
590.46	0.98724692
590.66	0.98792577
590.861	0.98859572
591.061	0.98923743
591.262	0.99009722
591.462	0.99090086
591.662	0.99172354
591.863	0.99246244
592.063	0.99338503
592.264	0.99419648
592.464	0.99487229
592.664	0.99558317
592.865	0.99628527
593.065	0.99660748
593.265	0.99745297
593.465	0.99771319
593.666	0.99827153
593.866	0.99869129
594.066	0.99914689
594.266	0.99956841
594.467	0.99989326
594.667	1.00027419
594.867	1.00088776
595.067	1.00135329
595.267	1.00196516
595.467	1.00235584
595.668	1.00291564
595.868	1.00382164
596.068	1.0043487
596.268	1.00492134
596.468	1.00546079
596.668	1.0061638
596.868	1.00650017
597.068	1.00698735
597.268	1.0073831
597.468	1.00776079
597.668	1.00808449
597.868	1.00835358
598.068	1.0083494
598.268	1.00886309
598.467	1.00913875
598.667	1.0094619
598.867	1.00963968
599.067	1.01013129
599.267	1.01038406
599.467	1.01072939
599.667	1.01085493
599.866	1.01140641
600.066	1.01179348
600.266	1.01189409
600.466	1.01199102
600.665	1.0121704
600.865	1.01220139
601.065	1.0127136
601.264	1.01263281
601.464	1.01269347
601.664	1.0132699
601.863	1.01356029
602.063	1.0139051
602.263	1.01386149
602.462	1.01406297
602.662	1.0143573
602.861	1.01431177
603.061	1.01430034
603.26	1.01426983
603.46	1.01410395
603.659	1.01447512
603.859	1.01436083
604.058	1.01421028
604.258	1.01437832
604.457	1.01481227
604.657	1.01483345
604.856	1.01489001
605.056	1.01490397
605.255	1.01472788
605.454	1.01467876
605.654	1.0146586
605.853	1.01429978
606.052	1.0138475
606.252	1.01386181
606.451	1.01388128
606.65	1.01418696
606.849	1.01386795
607.049	1.01362661
607.248	1.01328836
607.447	1.013517
607.646	1.01353957
607.845	1.01318557
608.045	1.0125725
608.244	1.01260362
608.443	1.01251113
608.642	1.01234437
608.841	1.01200121
609.04	1.011531
609.239	1.01145759
609.438	1.0112636
609.637	1.01078005
609.836	1.0105232
610.035	1.01024573
610.234	1.01006433
610.433	1.00989666
610.632	1.00957061
610.831	1.00933226
611.03	1.00909641
611.229	1.00894105
611.428	1.00877375
611.627	1.00843507
611.826	1.00788179
612.025	1.00753295
612.224	1.00703741
612.422	1.00670501
612.621	1.00609347
612.82	1.00557697
613.019	1.00498177
613.218	1.00470985
613.416	1.00391976
613.615	1.00344108
613.814	1.00268483
614.012	1.00212539
614.211	1.00138796
614.41	1.00096289
614.608	1.00043083
614.807	1.0000952
615.006	0.99962374
615.204	0.99908938
615.403	0.99860736
615.602	0.99831845
615.8	0.99765447
615.999	0.99680487
616.197	0.99613025
616.396	0.99541779
616.594	0.99483629
616.793	0.9942825
616.991	0.99341023
617.19	0.99268208
617.388	0.99231088
617.586	0.99156558
617.785	0.99092514
617.983	0.99040734
618.182	0.98953439
618.38	0.98869152
618.578	0.98792292
618.777	0.98714747
618.975	0.98666207
619.173	0.98584414
619.372	0.98521623
619.57	0.98454365
619.768	0.9840936
619.966	0.98347553
620.165	0.98245427
620.363	0.98167482
620.561	0.98097237
620.759	0.97995534
620.957	0.97903939
621.155	0.97797381
621.354	0.9771649
621.552	0.97668263
621.75	0.9755373
621.948	0.9748253
622.146	0.97387218
622.344	0.97276958
622.542	0.97197728
622.74	0.97064718
622.938	0.96949521
623.136	0.9687432
623.334	0.96776065
623.532	0.96673765
623.73	0.9660968
623.928	0.96507717
624.126	0.96447401
624.324	0.96379925
624.522	0.96255525
624.719	0.96121817
624.917	0.96041161
625.115	0.95900994
625.313	0.95811468
625.511	0.95710362
625.708	0.95559096
625.906	0.95467239
626.104	0.95372903
626.302	0.95264568
626.499	0.95176769
626.697	0.95053966
626.895	0.94941991
627.093	0.94860495
627.29	0.94770034
627.488	0.94662889
627.686	0.9456552
627.883	0.94456002
628.081	0.94330504
628.278	0.94219826
628.476	0.940926
628.673	0.93963354
628.871	0.93850063
629.068	0.93716265
629.266	0.93600924
629.463	0.93511281
629.661	0.93379077
629.858	0.93254132
630.056	0.93131649
630.253	0.93025468
630.451	0.92896791
630.648	0.92759983
630.845	0.92610805
631.043	0.924818
631.24	0.92370915
631.438	0.92234557
631.635	0.92083676
631.832	0.91945462
632.029	0.9183512
632.227	0.91703893
632.424	0.91584386
632.621	0.91427475
632.818	0.91300957
633.016	0.91160534
633.213	0.91027729
633.41	0.90870075
633.607	0.90723847
633.804	0.90586259
634.001	0.9046045
634.199	0.90309326
634.396	0.90192061
634.593	0.90056204
634.79	0.89932804
634.987	0.8980267
635.184	0.8965769
635.381	0.89512721
635.578	0.89390108
635.775	0.89250927
635.972	0.89112564
636.169	0.88962832
636.366	0.88829167
636.563	0.88673242
636.76	0.88516405
636.957	0.8837228
637.153	0.88197293
637.35	0.8806715
637.547	0.87926186
637.744	0.87768579
637.941	0.87638966
638.138	0.87488519
638.334	0.87335453
638.531	0.87207464
638.728	0.87052907
638.925	0.86907073
639.121	0.86770039
639.318	0.86611991
639.515	0.86466936
639.711	0.86315415
639.908	0.86123015
640.105	0.85953875
640.301	0.85786178
640.498	0.85603415
640.695	0.85450917
640.891	0.85293881
641.088	0.85130394
641.284	0.84981799
641.481	0.84821098
641.677	0.84660141
641.874	0.84490921
642.07	0.84329972
642.267	0.84200714
642.463	0.84031823
642.66	0.83898144
642.856	0.83729609
643.053	0.83555586
643.249	0.83411447
643.445	0.83239031
643.642	0.83044147
643.838	0.82896647
644.034	0.82729852
644.231	0.8257366
644.427	0.8242193
644.623	0.82250465
644.82	0.82086055
645.016	0.81911092
645.212	0.81719719
645.408	0.81546612
645.604	0.81400887
645.801	0.81251048
645.997	0.81092255
646.193	0.80932167
646.389	0.80787549
646.585	0.80641854
646.781	0.804744
646.977	0.80300242
647.173	0.80115522
647.37	0.79946566
647.566	0.79767358
647.762	0.79587643
647.958	0.79428561
648.154	0.79247503
648.35	0.79077364
648.546	0.78902953
648.742	0.78737474
648.937	0.78567568
649.133	0.78407483
649.329	0.78220212
649.525	0.78054741
649.721	0.77868274
649.917	0.77706226
650.113	0.77523085
650.309	0.77365715
650.504	0.77175765
650.7	0.76998553
650.896	0.76812172
651.092	0.76635512
651.287	0.76451408
651.483	0.76270573
651.679	0.76094948
651.875	0.75919832
652.07	0.75748619
652.266	0.75582533
652.462	0.75409566
652.657	0.75222941
652.853	0.75032836
653.048	0.74838752
653.244	0.74656907
653.44	0.74473507
653.635	0.74279424
653.831	0.74094479
654.026	0.73938805
654.222	0.73770662
654.417	0.73601611
654.613	0.73419884
654.808	0.73221534
655.004	0.73051585
655.199	0.7287665
655.394	0.72680903
655.59	0.72509253
655.785	0.72321083
655.98	0.72148796
656.176	0.71964458
656.371	0.71794798
656.566	0.71609436
656.762	0.71421671
656.957	0.71222767
657.152	0.7103061
657.348	0.70838279
657.543	0.70670333
657.738	0.70469483
657.933	0.7028983
658.128	0.70104219
658.324	0.69923599
658.519	0.69757722
658.714	0.69575833
658.909	0.69383879
659.104	0.69210527
659.299	0.69015899
659.494	0.68831311
659.689	0.68653066
659.884	0.68449181
660.079	0.68255741
660.274	0.68073808
660.469	0.67893053
660.664	0.67729234
660.859	0.67539855
661.054	0.67349787
661.249	0.67166936
661.444	0.66991973
661.639	0.66806504
661.834	0.66616086
662.029	0.664179
662.224	0.66236072
662.418	0.66060298
662.613	0.65886199
662.808	0.65692248
663.003	0.65511977
663.198	0.65312822
663.392	0.65109227
663.587	0.64934523
663.782	0.64731721
663.977	0.64532196
664.171	0.64363077
664.366	0.64171809
664.561	0.63987019
664.755	0.63807273
664.95	0.63613534
665.144	0.63429118
665.339	0.63253787
665.534	0.63054772
665.728	0.62870707
665.923	0.62688282
666.117	0.62500856
666.312	0.62310352
666.506	0.6212416
666.701	0.61925151
666.895	0.61741255
667.09	0.61547786
667.284	0.61374894
667.479	0.6119595
667.673	0.61017616
667.867	0.60843394
668.062	0.60664794
668.256	0.60484646
668.45	0.60320673
668.645	0.60134583
668.839	0.5995121
669.033	0.59762387
669.228	0.59569629
669.422	0.59388772
669.616	0.59200309
669.81	0.59010156
670.004	0.58816185
670.199	0.58637189
670.393	0.58452072
670.587	0.58268053
670.781	0.58088893
670.975	0.57900417
671.169	0.57699535
671.363	0.57518897
671.558	0.57337841
671.752	0.57163524
671.946	0.56995364
672.14	0.56819268
672.334	0.56642027
672.528	0.56483826
672.722	0.56288663
672.916	0.561004
673.11	0.55903307
673.304	0.55725924
673.497	0.55522695
673.691	0.55350013
673.885	0.55158858
674.079	0.54991392
674.273	0.54806913
674.467	0.54639678
674.661	0.54446731
674.854	0.54266828
675.048	0.54077969
675.242	0.53897694
675.436	0.53710171
675.629	0.53521935
675.823	0.53333831
676.017	0.53166096
676.211	0.52989834
676.404	0.52811608
676.598	0.52636685
676.792	0.52463533
676.985	0.52295191
677.179	0.52115746
677.372	0.51926564
677.566	0.51747257
677.76	0.51563117
677.953	0.5136715
678.147	0.51194056
678.34	0.51019622
678.534	0.50848908
678.727	0.50689095
678.921	0.50536796
679.114	0.5036871
679.307	0.50210157
679.501	0.50035585
679.694	0.49861393
679.888	0.49686094
680.081	0.49500909
680.274	0.49302725
680.468	0.49116352
680.661	0.48925911
680.854	0.48748949
681.048	0.48571877
681.241	0.48388004
681.434	0.48215666
681.627	0.48051418
681.821	0.47887664
682.014	0.47737588
682.207	0.47561173
682.4	0.47383689
682.593	0.47212584
682.786	0.47039854
682.98	0.4686454
683.173	0.46696732
683.366	0.46525872
683.559	0.46367485
683.752	0.46212895
683.945	0.46053266
684.138	0.45902223
684.331	0.45740671
684.524	0.45584209
684.717	0.45410381
684.91	0.45243853
685.103	0.45086666
685.296	0.44922331
685.489	0.44753231
685.682	0.44590078
685.874	0.44430394
686.067	0.44266753
686.26	0.44098535
686.453	0.43923335
686.646	0.43745681
686.839	0.4357744
687.031	0.43407374
687.224	0.43224739
687.417	0.43067719
687.61	0.42906171
687.802	0.42744128
687.995	0.42594732
688.188	0.42437915
688.38	0.4227415
688.573	0.4212277
688.766	0.41965737
688.958	0.41796924
689.151	0.41631032
689.343	0.41473255
689.536	0.41313797
689.729	0.41161003
689.921	0.41011454
690.114	0.40855406
690.306	0.40711529
690.499	0.40566224
690.691	0.40413546
690.884	0.40259549
691.076	0.40102842
691.268	0.39937677
691.461	0.39771491
691.653	0.39620689
691.846	0.39466301
692.038	0.3931476
692.23	0.39153602
692.423	0.39011751
692.615	0.38869043
692.807	0.3872693
692.999	0.38573097
693.192	0.38420113
693.384	0.38267253
693.576	0.38117296
693.768	0.37963201
693.961	0.37802192
694.153	0.37652069
694.345	0.37499706
694.537	0.3735038
694.729	0.37204321
694.921	0.37055934
695.113	0.36914259
695.305	0.36772223
695.498	0.36621977
695.69	0.36483585
695.882	0.36341908
696.074	0.36203108
696.266	0.36062954
696.458	0.35905472
696.65	0.35765495
696.842	0.35630161
697.033	0.35482182
697.225	0.35341053
697.417	0.35206473
697.609	0.35067185
697.801	0.34935935
697.993	0.34797333
698.185	0.34655202
698.376	0.34521297
698.568	0.3437896
698.76	0.34236341
698.952	0.34101963
699.144	0.33968193
699.335	0.33842471
699.527	0.33711788
699.719	0.33584562
699.91	0.33459463
700.102	0.33330803
700.294	0.33199041
700.485	0.33062378
700.677	0.32914961
700.869	0.32777378
701.06	0.32635687
701.252	0.32495011
701.443	0.32355887
701.635	0.32219891
701.826	0.32087297
702.018	0.31954607
702.209	0.31827045
702.401	0.31694273
702.592	0.31571691
702.784	0.31454095
702.975	0.31333581
703.166	0.31219102
703.358	0.31102865
703.549	0.30985149
703.741	0.30869938
703.932	0.30746436
704.123	0.30618514
704.315	0.30493818
704.506	0.30368338
704.697	0.30231995
704.888	0.30107867
705.08	0.29992761
705.271	0.29876633
705.462	0.29756826
705.653	0.29641553
705.844	0.29520926
706.035	0.29410458
706.227	0.29301925
706.418	0.29180711
706.609	0.29061079
706.8	0.28946048
706.991	0.28824854
707.182	0.28713158
707.373	0.28592594
707.564	0.28471863
707.755	0.28347408
707.946	0.28232083
708.137	0.28100945
708.328	0.27974755
708.519	0.27858314
708.71	0.27748305
708.901	0.2763345
709.092	0.27532401
709.283	0.27428054
709.473	0.27331261
709.664	0.27238065
709.855	0.27126825
710.046	0.2702309
710.237	0.26910119
710.427	0.26794352
710.618	0.26678572
710.809	0.26563069
711	0.26456342
711.19	0.26354144
711.381	0.26248969
711.572	0.261398
711.762	0.26038471
711.953	0.25934512
712.144	0.25829459
712.334	0.25715706
712.525	0.25608784
712.715	0.25509955
712.906	0.2541224
713.097	0.25307608
713.287	0.2520566
713.478	0.25104201
713.668	0.25005499
713.859	0.24906585
714.049	0.24803383
714.239	0.2470962
714.43	0.24609688
714.62	0.24512573
714.811	0.24416192
715.001	0.24319699
715.191	0.2421432
715.382	0.24104807
715.572	0.24003997
715.762	0.23909638
715.953	0.23816634
716.143	0.23721645
716.333	0.2362143
716.523	0.23525975
716.714	0.23444951
716.904	0.23344149
717.094	0.23254913
717.284	0.23159799
717.474	0.23066419
717.664	0.22987717
717.855	0.22901562
718.045	0.2280522
718.235	0.22718849
718.425	0.22626419
718.615	0.22533969
718.805	0.22450613
718.995	0.22359559
719.185	0.22277654
719.375	0.2219355
719.565	0.22110989
719.755	0.22027087
719.945	0.21948528
720.135	0.21860829
720.325	0.21777878
720.515	0.21689266
720.704	0.21610161
720.894	0.21535619
721.084	0.21464777
721.274	0.21387676
721.464	0.2130588
721.654	0.21225843
721.843	0.21148406
722.033	0.21068293
722.223	0.20975697
722.413	0.20882115
722.602	0.20800964
722.792	0.20729765
722.982	0.20651705
723.171	0.20570379
723.361	0.20486207
723.55	0.20411002
723.74	0.20333032
723.93	0.20247339
724.119	0.20159617
724.309	0.20076222
724.498	0.20001898
724.688	0.19934741
724.877	0.19863965
725.067	0.19799156
725.256	0.19729797
725.446	0.19659354
725.635	0.19583146
725.825	0.19501123
726.014	0.19418594
726.203	0.19340543
726.393	0.19257652
726.582	0.19183722
726.771	0.19119828
726.961	0.19063707
727.15	0.19000831
727.339	0.18939294
727.529	0.18877507
727.718	0.1881017
727.907	0.18735165
728.096	0.18659483
728.286	0.18578457
728.475	0.18508996
728.664	0.18434924
728.853	0.18368442
729.042	0.18295357
729.231	0.18235385
729.42	0.18171598
729.609	0.1811192
729.799	0.18049588
729.988	0.17987936
730.177	0.1792125
730.366	0.17861342
730.555	0.17799582
730.744	0.17738287
730.933	0.17670256
731.122	0.17607892
731.31	0.1754552
731.499	0.17484377
731.688	0.17426693
731.877	0.17361484
732.066	0.17293713
732.255	0.1723423
732.444	0.17172688
732.632	0.17108655
732.821	0.17044842
733.01	0.16976676
733.199	0.16912733
733.388	0.16853037
733.576	0.16788791
733.765	0.16722089
733.954	0.16661061
734.142	0.16592374
734.331	0.16525564
734.52	0.16458578
734.708	0.16382597
734.897	0.16324623
735.086	0.162672
735.274	0.16211491
735.463	0.16165174
735.651	0.16117626
735.84	0.16068403
736.028	0.1602383
736.217	0.15967262
736.405	0.15905782
736.594	0.1584365
736.782	0.15781078
736.971	0.15719479
737.159	0.15668402
737.347	0.15612339
737.536	0.15553716
737.724	0.15504987
737.912	0.15458923
738.101	0.15412618
738.289	0.15372935
738.477	0.15327236
738.666	0.15287416
738.854	0.15246066
739.042	0.15205545
739.23	0.15154671
739.418	0.15100212
739.607	0.15041487
739.795	0.14979448
739.983	0.14919613
740.171	0.14865649
740.359	0.14807039
740.547	0.14759331
740.735	0.14714915
740.923	0.14673113
741.112	0.14632533
741.3	0.14592371
741.488	0.1454998
741.676	0.14514431
741.864	0.14467211
742.052	0.14415941
742.239	0.14361413
742.427	0.14317653
742.615	0.14273425
742.803	0.1423537
742.991	0.14186817
743.179	0.14150459
743.367	0.14124333
743.555	0.14102368
743.742	0.14068932
743.93	0.14032846
744.118	0.13989066
744.306	0.13957378
744.494	0.13929333
744.681	0.13890568
744.869	0.13850919
745.057	0.13816855
745.244	0.13787674
745.432	0.13762328
745.62	0.13738326
745.807	0.1370211
745.995	0.1366828
746.182	0.13626047
746.37	0.13579997
746.558	0.13542029
746.745	0.13499894
746.933	0.13441747
747.12	0.13393446
747.308	0.13352301
747.495	0.13320143
747.683	0.13291307
747.87	0.13255147
748.057	0.13219392
748.245	0.13197686
748.432	0.13168058
748.62	0.13127835
748.807	0.13086266
748.994	0.13048174
749.182	0.13004268
749.369	0.12968713
749.556	0.12936303
749.743	0.1290315
749.931	0.12881227
750.118	0.12856333
750.305	0.12825602
750.492	0.12804148
750.68	0.12781779
750.867	0.12746549
751.054	0.1271595
751.241	0.12675156
751.428	0.12641704
751.615	0.12607869
751.802	0.12569848
751.989	0.12528753
752.176	0.12498341
752.363	0.12468165
752.55	0.12442543
752.737	0.12415137
752.924	0.12387566
753.111	0.12357219
753.298	0.12332387
753.485	0.12305707
753.672	0.12277567
753.859	0.12256261
754.046	0.12233879
754.233	0.1221146
754.42	0.12201373
754.606	0.12167056
754.793	0.12139636
754.98	0.12115252
755.167	0.12077352
755.353	0.12046064
755.54	0.12016077
755.727	0.11975984
755.914	0.11959993
756.1	0.11934957
756.287	0.11905789
756.474	0.11879184
756.66	0.11852694
756.847	0.11832943
757.033	0.11809614
757.22	0.11783776
757.407	0.11765185
757.593	0.11746683
757.78	0.11729059
757.966	0.1170637
758.153	0.11682757
758.339	0.11658832
758.526	0.11632834
758.712	0.11603315
758.898	0.11581006
759.085	0.11557277
759.271	0.11532059
759.458	0.11505539
759.644	0.11488663
759.83	0.1147027
760.017	0.11450343
760.203	0.11429091
760.389	0.11412986
760.576	0.11393772
760.762	0.11375913
760.948	0.11351599
761.134	0.11336377
761.32	0.11321888
761.507	0.11302272
761.693	0.11285276
761.879	0.11270421
762.065	0.11258816
762.251	0.11246058
762.437	0.11230021
762.623	0.11209971
762.809	0.11193774
762.995	0.11176945
763.181	0.11166928
763.367	0.11151871
763.553	0.11142241
763.739	0.11132194
763.925	0.11120677
764.111	0.11108711
764.297	0.11098683
764.483	0.11079594
764.669	0.11053525
764.855	0.11024225
765.041	0.10992971
765.227	0.10967369
765.412	0.10946251
765.598	0.10925628
765.784	0.10907116
765.97	0.10899077
766.156	0.10888614
766.341	0.10880751
766.527	0.10870393
766.713	0.10861328
766.898	0.10842333
767.084	0.10834763
767.27	0.10820573
767.455	0.10813276
767.641	0.10798626
767.827	0.10781039
768.012	0.10761397
768.198	0.10755008
768.383	0.10736391
768.569	0.10726371
768.754	0.10710539
768.94	0.10699797
769.125	0.10688566
769.311	0.10671395
769.496	0.10647143
769.682	0.10637395
769.867	0.10626168
770.052	0.10616281
770.238	0.10611761
770.423	0.10613143
770.608	0.10619828
770.794	0.1062477
770.979	0.1061778
771.164	0.10604685
771.35	0.10587767
771.535	0.1057072
771.72	0.10552311
771.905	0.10537454
772.09	0.10528324
772.276	0.10521676
772.461	0.10505205
772.646	0.1050252
772.831	0.10496386
773.016	0.10497271
773.201	0.10494438
773.386	0.10492399
773.571	0.10495652
773.756	0.10498725
773.941	0.10500107
774.126	0.10501833
774.311	0.10489233
774.496	0.10487955
774.681	0.10479571
774.866	0.10459582
775.051	0.10453505
775.236	0.10442163
775.421	0.10438799
775.606	0.10434014
775.791	0.10414113
775.976	0.10398153
776.16	0.10389744
776.345	0.10378689
776.53	0.10363938
776.715	0.10342021
776.899	0.10322107
777.084	0.10306852
777.269	0.10286175
777.454	0.1027166
777.638	0.10260275
777.823	0.10254344
778.008	0.10244984
778.192	0.10247927
778.377	0.10253562
778.561	0.10265132
778.746	0.10279855
778.931	0.10297969
779.115	0.10306457
779.3	0.10312416
779.484	0.10304914
779.669	0.10297151
779.853	0.10281899
780.037	0.1025961
780.222	0.10232175
780.406	0.10210053
780.591	0.10188235
780.775	0.10171328
780.959	0.10153029
781.144	0.10137473
781.328	0.10117973
781.512	0.10099451
781.697	0.10083887
781.881	0.10069021
782.065	0.10064792
782.249	0.10053417
782.434	0.10050777
782.618	0.10043747
782.802	0.10044782
782.986	0.10042133
783.17	0.10042787
783.354	0.1003529
783.539	0.10036042
783.723	0.10026537
783.907	0.10025507
784.091	0.1001126
784.275	0.10005053
784.459	0.09996204
784.643	0.09986699
784.827	0.09976394
785.011	0.09968671
785.195	0.09961084
785.379	0.09958441
785.563	0.09950997
785.747	0.09942924
785.93	0.09935641
786.114	0.09920011
786.298	0.09914612
786.482	0.0990191
786.666	0.09893208
786.85	0.09880545
787.033	0.09872336
787.217	0.0986174
787.401	0.09853608
787.585	0.0984971
787.768	0.09848039
787.952	0.09842257
788.136	0.09835885
788.319	0.09830591
788.503	0.0982857
788.687	0.09830671
788.87	0.09827505
789.054	0.09825319
789.237	0.09831706
789.421	0.09834774
789.605	0.09831829
789.788	0.09834896
789.972	0.09839374
790.155	0.09833992
790.338	0.09833349
790.522	0.09824
790.705	0.09820129
790.889	0.09816718
791.072	0.09804619
791.256	0.09799722
791.439	0.0979731
791.622	0.09791683
791.806	0.09783714
791.989	0.09776133
792.172	0.09773152
792.355	0.09775688
792.539	0.09771489
792.722	0.09765878
792.905	0.0976213
793.088	0.09763351
793.271	0.09761751
793.455	0.09764728
793.638	0.09777672
793.821	0.09791449
794.004	0.09803863
794.187	0.09816671
794.37	0.09831408
794.553	0.09843599
794.736	0.09846024
794.919	0.09838277
795.102	0.09828965
795.285	0.09829159
795.468	0.09826418
795.651	0.09823007
795.834	0.09838489
796.017	0.09853741
796.2	0.0986764
796.383	0.09882932
796.566	0.09892886
796.749	0.09903174
796.931	0.09911603
797.114	0.09908806
797.297	0.09910495
797.48	0.09907411
797.663	0.09903438
797.845	0.09906944
798.028	0.09911378
798.211	0.09907293
798.393	0.09894151
798.576	0.09884524
798.759	0.09878734
798.941	0.09877673
799.124	0.09868587
799.307	0.09857759
799.489	0.09858985
799.672	0.09866104
799.854	0.09877413
800.037	0.09886866
800.219	0.09894211
800.402	0.09897942
800.584	0.09910619
800.767	0.09920324
800.949	0.0993004
801.132	0.09931123
801.314	0.09938192
801.496	0.09936397
801.679	0.09940118
801.861	0.09941317
802.043	0.0994028
802.226	0.09938012
802.408	0.0993659
802.59	0.09927128
802.772	0.09917646
802.955	0.09908508
803.137	0.09888285
803.319	0.09874856
803.501	0.09867541
803.684	0.09869234
803.866	0.0987344
804.048	0.09877359
804.23	0.09889074
804.412	0.09901408
804.594	0.09909347
804.776	0.09920679
804.958	0.09921995
805.14	0.09927599
805.322	0.09929585
805.504	0.09920921
805.686	0.09909508
805.868	0.09901437
806.05	0.09880357
806.232	0.09865246
806.414	0.098513
806.596	0.09840412
806.778	0.09832866
806.96	0.09834703
807.141	0.0982764
807.323	0.09830892
807.505	0.09829499
807.687	0.09825763
807.869	0.09831719
808.05	0.09832366
808.232	0.098398
808.414	0.09853705
808.595	0.09862871
808.777	0.09865748
808.959	0.09865346
809.14	0.0986576
809.322	0.09870974
809.504	0.09869504
809.685	0.09861203
809.867	0.0985394
810.048	0.09846133
810.23	0.09841716
810.411	0.09823795
810.593	0.09810757
810.774	0.09797488
810.956	0.09786488
811.137	0.09778724
811.319	0.09778837
811.5	0.0976859
811.681	0.09765265
811.863	0.09757741
812.044	0.09752988
812.225	0.09754696
812.407	0.097482
812.588	0.09735804
812.769	0.09734512
812.951	0.09735816
813.132	0.09736708
813.313	0.09737944
813.494	0.0973689
813.675	0.09747296
813.857	0.0975203
814.038	0.09760044
814.219	0.09756819
814.4	0.09754939
814.581	0.09744595
814.762	0.0973656
814.943	0.0972556
815.124	0.09722305
815.305	0.09710217
815.486	0.09712766
815.667	0.09708861
815.848	0.0971321
816.029	0.09707014
816.21	0.09704648
816.391	0.09706788
816.572	0.0970746
816.753	0.09709042
816.934	0.09715069
817.115	0.09717206
817.295	0.09727301
817.476	0.09736514
817.657	0.09746167
817.838	0.09769909
818.019	0.09781231
818.199	0.09790089
818.38	0.09804339
818.561	0.09813415
818.741	0.09822303
818.922	0.09823296
819.103	0.09814853
819.283	0.09816116
819.464	0.09816544
819.645	0.09808608
819.825	0.0980387
820.006	0.09790468
820.186	0.09781208
820.367	0.09778864
820.547	0.097733
820.728	0.09774519
820.908	0.09786447
821.089	0.09796043
821.269	0.09814445
821.45	0.09835527
821.63	0.09845557
821.81	0.09858416
821.991	0.09863199
822.171	0.09861962
822.351	0.09858745
822.532	0.09851102
822.712	0.0984373
822.892	0.09839918
823.072	0.09846763
823.253	0.09866459
823.433	0.09880407
823.613	0.09907433
823.793	0.09927084
823.973	0.09950268
824.154	0.0996764
824.334	0.09975741
824.514	0.09979599
824.694	0.09990171
824.874	0.09993356
825.054	0.09999337
825.234	0.09997748
825.414	0.10003157
825.594	0.10000113
825.774	0.09992689
825.954	0.09988147
826.134	0.09978385
826.314	0.09963791
826.494	0.09958226
826.674	0.09946804
826.854	0.09943894
827.033	0.09938889
827.213	0.09943546
827.393	0.09947357
827.573	0.09963549
827.753	0.09978385
827.932	0.09991062
828.112	0.1000038
828.292	0.10013966
828.472	0.10013184
828.651	0.10010349
828.831	0.10002162
829.011	0.09985025
829.19	0.09975043
829.37	0.09965785
829.549	0.09964197
829.729	0.0995979
829.909	0.09961224
830.088	0.09964871
830.268	0.09971057
830.447	0.09980782
830.627	0.09988368
830.806	0.09986811
830.986	0.09986078
831.165	0.09986251
831.344	0.09990508
831.524	0.09996846
831.703	0.10003576
831.883	0.10009411
832.062	0.1001638
832.241	0.10027984
832.421	0.10038639
832.6	0.10044338
832.779	0.10045162
832.958	0.10036703
833.138	0.10037845
833.317	0.10032751
833.496	0.10023207
833.675	0.10015269
833.854	0.1000798
834.034	0.10001018
834.213	0.10005276
834.392	0.10006528
834.571	0.10011489
834.75	0.10022822
834.929	0.10030739
835.108	0.10041888
835.287	0.10051695
835.466	0.10061375
835.645	0.10069589
835.824	0.10073155
836.003	0.10067658
836.182	0.10064765
836.361	0.10059336
836.54	0.10046818
836.719	0.10040436
836.897	0.10026492
837.076	0.10022369
837.255	0.10023823
837.434	0.10027584
837.613	0.10026363
837.791	0.10040096
837.97	0.10039203
838.149	0.1004242
838.328	0.10038574
838.506	0.10028235
838.685	0.10019151
838.864	0.10020154
839.042	0.1002302
839.221	0.10028997
839.4	0.10032149
839.578	0.1004045
839.757	0.10057959
839.935	0.10066771
840.114	0.10076014
840.292	0.10071074
840.471	0.10076148
840.649	0.10083313
840.828	0.100849
841.006	0.10083442
841.185	0.10087721
841.363	0.10082634
841.541	0.10082517
841.72	0.10075422
841.898	0.10074221
842.076	0.1006921
842.255	0.10073974
842.433	0.10077438
842.611	0.10084348
842.789	0.10094764
842.968	0.10109479
843.146	0.10103699
843.324	0.10114446
843.502	0.10114026
843.68	0.10113764
843.859	0.1010493
844.037	0.10095334
844.215	0.10076468
844.393	0.10080926
844.571	0.10068499
844.749	0.10065541
844.927	0.10057975
845.105	0.10058341
845.283	0.1006903
845.461	0.10080201
845.639	0.10080279
845.817	0.10087822
845.995	0.10081798
846.173	0.10080028
846.351	0.10074293
846.529	0.10058958
846.706	0.10049884
846.884	0.10045696
847.062	0.10036023
847.24	0.10040461
847.418	0.10042505
847.595	0.10040799
847.773	0.10040665
847.951	0.10038057
848.129	0.10042117
848.306	0.1005001
848.484	0.10036396
848.662	0.10029942
848.839	0.10028967
849.017	0.10031624
849.194	0.10030735
849.372	0.10018676
849.549	0.10014236
849.727	0.10013503
849.905	0.10012388
850.082	0.10020757
850.26	0.10021484
850.437	0.1002558
850.614	0.10037945
850.792	0.10034524
850.969	0.10035918
851.147	0.10048464
851.324	0.10059403
851.501	0.1006913
851.679	0.10087725
851.856	0.10090797
852.033	0.10105733
852.211	0.10114983
852.388	0.10102021
852.565	0.10095821
852.742	0.10090513
852.92	0.1006754
853.097	0.10049048
853.274	0.100353
853.451	0.10034614
853.628	0.1003737
853.805	0.10024921
853.982	0.10023224
854.159	0.100353
854.336	0.10049721
854.514	0.10049641
854.691	0.10044394
854.868	0.10043774
855.045	0.10045722
855.221	0.10042615
855.398	0.10024664
855.575	0.1001721
855.752	0.10014182
855.929	0.1001256
856.106	0.1000891
856.283	0.10013048
856.46	0.1001421
856.637	0.10024896
856.813	0.1002915
856.99	0.10031662
857.167	0.10034811
857.344	0.10044036
857.52	0.10039559
857.697	0.10032534
857.874	0.10029376
858.05	0.10031024
858.227	0.10036535
858.404	0.10041045
858.58	0.10035151
858.757	0.10035203
858.933	0.10038335
859.11	0.10031115
859.287	0.10011555
859.463	0.09995767
859.64	0.0999171
859.816	0.09978919
859.993	0.0997373
860.169	0.09963246
860.345	0.09956134
860.522	0.09957988
860.698	0.09965443
860.875	0.0996094
861.051	0.09966177
861.227	0.09958473
861.404	0.09960844
861.58	0.09959325
861.756	0.09963097
861.932	0.09959374
862.109	0.09958349
862.285	0.09969632
862.461	0.09986082
862.637	0.10001286
862.813	0.10018449
862.99	0.1001819
863.166	0.10015364
863.342	0.10014361
863.518	0.10005901
863.694	0.09991565
863.87	0.09978131
864.046	0.09967857
864.222	0.09952773
864.398	0.09943562
864.574	0.09926734
864.75	0.09919174
864.926	0.09923962
865.102	0.09923414
865.278	0.09920809
865.454	0.0993053
865.63	0.09936784
865.805	0.09941414
865.981	0.09942348
866.157	0.0993583
866.333	0.09927427
866.509	0.0991951
866.684	0.09921414
866.86	0.09918296
867.036	0.09909774
867.212	0.09896946
867.387	0.0989729
867.563	0.09888932
867.739	0.09885386
867.914	0.09876009
868.09	0.0987358
868.265	0.09871627
868.441	0.09868104
868.617	0.09847966
868.792	0.09834818
868.968	0.09819085
869.143	0.09814794
869.319	0.09812886
869.494	0.09811744
869.67	0.09819866
869.845	0.0983065
870.02	0.09841062
870.196	0.098389
870.371	0.09833905
870.546	0.09818102
870.722	0.09812185
870.897	0.09802193
871.072	0.09788844
871.248	0.0977261
871.423	0.09772742
871.598	0.0976568
871.773	0.09769574
871.949	0.09768346
872.124	0.09756617
872.299	0.09755075
872.474	0.09764258
872.649	0.09766794
872.824	0.09759547
872.999	0.09748073
873.174	0.09741372
873.349	0.09734118
873.524	0.09724807
873.699	0.09723175
873.874	0.09706106
874.049	0.09702105
874.224	0.09693394
874.399	0.09689207
874.574	0.09684229
874.749	0.09684333
874.924	0.09658553
875.099	0.09654264
875.274	0.096424
875.449	0.09635949
875.623	0.09633261
875.798	0.09637977
875.973	0.09633891
876.148	0.09635536
876.322	0.09640606
876.497	0.09642583
876.672	0.09651783
876.846	0.09632194
877.021	0.09619112
877.196	0.09611948
877.37	0.09625257
877.545	0.09626937
877.72	0.09629165
877.894	0.09619285
878.069	0.09623314
878.243	0.0962019
878.418	0.0961526
878.592	0.09598459
878.767	0.09581487
878.941	0.09565469
879.116	0.09559537
879.29	0.09552078
879.464	0.09545981
879.639	0.09531764
879.813	0.09527816
879.987	0.09514439
880.162	0.09510407
880.336	0.09489304
880.51	0.09475886
880.685	0.09463434
880.859	0.09467233
881.033	0.0944956
881.207	0.09443831
881.381	0.09439233
881.556	0.09431412
881.73	0.09427708
881.904	0.09429099
882.078	0.09417736
882.252	0.09408261
882.426	0.0940519
882.6	0.09395643
882.774	0.09408111
882.948	0.09419583
883.122	0.09420841
883.296	0.09429468
883.47	0.09438271
883.644	0.09448183
883.818	0.09446271
883.992	0.09433682
884.166	0.09416016
884.34	0.09410452
884.514	0.09403798
884.687	0.09390686
884.861	0.09376556
885.035	0.09373444
885.209	0.09364118
885.382	0.09360045
885.556	0.09342527
885.73	0.09327883
885.904	0.09331717
886.077	0.09319056
886.251	0.0930457
886.425	0.09312064
886.598	0.09310786
886.772	0.09300188
886.945	0.09285965
887.119	0.09267086
887.292	0.09250963
887.466	0.09237133
887.64	0.09214577
887.813	0.09198858
887.986	0.09193454
888.16	0.09192776
888.333	0.09193112
888.507	0.09204738
888.68	0.09200577
888.854	0.09199238
889.027	0.09200415
889.2	0.09201726
889.374	0.09187699
889.547	0.09185944
889.72	0.09185929
889.893	0.09185268
890.067	0.09181131
890.24	0.09166749
890.413	0.09164415
890.586	0.09164647
890.759	0.09144879
890.933	0.09121294
891.106	0.0911437
891.279	0.09105873
891.452	0.09099125
891.625	0.09080028
891.798	0.09067709
891.971	0.09065868
892.144	0.09066017
892.317	0.09061347
892.49	0.09050447
892.663	0.09050137
892.836	0.09045393
893.009	0.09032149
893.182	0.0902806
893.355	0.09014685
893.527	0.09004888
893.7	0.08995786
893.873	0.08981615
894.046	0.08965856
894.219	0.0896607
894.391	0.08957704
894.564	0.08948239
894.737	0.08938903
894.91	0.08933762
895.082	0.08919111
895.255	0.08915522
895.428	0.08908436
895.6	0.08897023
895.773	0.08904447
895.945	0.08899363
896.118	0.08890685
896.291	0.08891497
896.463	0.08883961
896.636	0.08872381
896.808	0.08868791
896.981	0.08850324
897.153	0.08842886
897.326	0.08840115
897.498	0.08825371
897.67	0.08825614
897.843	0.08826253
898.015	0.08827706
898.187	0.08818471
898.36	0.08822702
898.532	0.08818347
898.704	0.08817871
898.877	0.0881808
899.049	0.08812402
899.221	0.08786693
899.393	0.08780269
899.566	0.08762813
899.738	0.08752497
899.91	0.08745859
900.082	0.0871999
900.254	0.08700261
900.426	0.08699205
900.598	0.08692756
900.77	0.08686593
900.942	0.08674955
901.114	0.08658691
901.286	0.08662911
901.458	0.08662188
901.63	0.08671954
901.802	0.08668879
901.974	0.08658734
902.146	0.08650709
902.318	0.08662987
902.49	0.0865643
902.662	0.08646338
902.834	0.08620108
903.005	0.08617474
903.177	0.08611012
903.349	0.08613151
903.521	0.08596533
903.693	0.08594274
903.864	0.08596233
904.036	0.08593368
904.208	0.08575307
904.379	0.08560931
904.551	0.0854314
904.723	0.08531513
904.894	0.08504758
905.066	0.08491124
905.237	0.08486074
905.409	0.08474903
905.58	0.084811
905.752	0.08470223
905.923	0.08463641
906.095	0.08458287
906.266	0.08447115
906.438	0.08419685
906.609	0.08416904
906.78	0.08394447
906.952	0.0838874
907.123	0.0836705
907.295	0.08359447
907.466	0.08344158
907.637	0.08343357
907.808	0.08320041
907.98	0.08299772
908.151	0.08276631
908.322	0.08265567
908.493	0.08249428
908.665	0.08230764
908.836	0.08225599
909.007	0.08230225
909.178	0.08241224
909.349	0.08246957
909.52	0.08250744
909.691	0.08243938
909.862	0.08247329
910.033	0.08224518
910.204	0.08207129
910.375	0.0818816
910.546	0.08173714
910.717	0.08147267
910.888	0.08143493
911.059	0.08123942
911.23	0.08118199
911.401	0.08101049
911.572	0.08081267
911.742	0.08068426
911.913	0.08072164
912.084	0.08057554
912.255	0.08060684
912.426	0.08062114
912.596	0.08060806
912.767	0.08060902
912.938	0.08069541
913.108	0.08077975
913.279	0.0808214
913.45	0.08080051
913.62	0.08081484
913.791	0.08087024
913.962	0.08092611
914.132	0.08085122
914.303	0.08070843
914.473	0.08049082
914.644	0.08027691
914.814	0.0801398
914.985	0.08009515
915.155	0.07993724
915.326	0.07968985
915.496	0.07949519
915.666	0.07941806
915.837	0.07937783
916.007	0.0791093
916.177	0.07877457
916.348	0.07861721
916.518	0.07860432
916.688	0.07842066
916.858	0.07834183
917.029	0.07816094
917.199	0.07806791
917.369	0.07799343
917.539	0.0778028
917.709	0.07754903
917.88	0.07744624
918.05	0.07725597
918.22	0.07714178
918.39	0.07704637
918.56	0.07706937
918.73	0.07724152
918.9	0.07726554
919.07	0.07733127
919.24	0.07739275
919.41	0.07755141
919.58	0.07749839
919.75	0.07741241
919.92	0.07708989
920.09	0.07698123
920.26	0.07678388
920.429	0.07658436
920.599	0.07631982
920.769	0.07620423
920.939	0.07592941
921.109	0.07595759
921.278	0.07582985
921.448	0.07570969
921.618	0.07570191
921.787	0.07553677
921.957	0.07558274
922.127	0.07556531
922.296	0.07537926
922.466	0.07532264
922.636	0.07536529
922.805	0.07539942
922.975	0.07547195
923.144	0.0753441
923.314	0.07547003
923.483	0.07547547
923.653	0.07549924
923.822	0.07538709
923.992	0.07529099
924.161	0.07523149
924.331	0.07515412
924.5	0.07498308
924.669	0.07496703
924.839	0.07487171
925.008	0.07472537
925.177	0.07461679
925.347	0.07455532
925.516	0.07459609
925.685	0.07445598
925.854	0.0743758
926.023	0.0742833
926.193	0.07421386
926.362	0.07389567
926.531	0.07359108
926.7	0.07324891
926.869	0.07303857
927.038	0.07278366
927.207	0.0725337
927.376	0.07233382
927.545	0.0723347
927.715	0.07221041
927.884	0.07210836
928.052	0.07208197
928.221	0.07196973
928.39	0.0719512
928.559	0.07187985
928.728	0.07174536
928.897	0.07177132
929.066	0.07192246
929.235	0.07183538
929.404	0.07177705
929.572	0.07158512
929.741	0.07149088
929.91	0.07148008
930.079	0.07128685
930.247	0.07099202
930.416	0.07077636
930.585	0.07053785
930.753	0.0704023
930.922	0.07030234
931.091	0.07023537
931.259	0.07026871
931.428	0.07017776
931.596	0.07017918
931.765	0.07011874
931.934	0.07018021
932.102	0.07010214
932.27	0.06982225
932.439	0.06974377
932.607	0.06964016
932.776	0.06961846
932.944	0.0696099
933.113	0.06938825
933.281	0.06945976
933.449	0.06956459
933.618	0.06950937
933.786	0.06960071
933.954	0.06958596
934.123	0.06985822
934.291	0.07004438
934.459	0.07014411
934.627	0.07013392
934.795	0.07027429
934.964	0.0702192
935.132	0.07023506
935.3	0.07006146
935.468	0.06995489
935.636	0.06990948
935.804	0.0699183
935.972	0.06978659
936.14	0.06977949
936.308	0.06994374
936.476	0.06990838
936.644	0.07013096
936.812	0.07015383
936.98	0.07018727
937.148	0.07029797
937.316	0.07038294
937.484	0.07039879
937.652	0.07074249
937.82	0.0712598
937.987	0.07138737
938.155	0.07187019
938.323	0.07197478
938.491	0.07239295
938.658	0.07268806
938.826	0.07281312
938.994	0.07258077
939.162	0.07279446
939.329	0.07310007
939.497	0.07375289
939.665	0.0738856
939.832	0.07427161
940	0.07484489
940.167	0.07538392
940.335	0.07567684
940.502	0.07606061
940.67	0.07629253
940.837	0.07699712
941.005	0.077152
941.172	0.0773363
941.34	0.0772936
941.507	0.07866089
941.674	0.0788548
941.842	0.07902674
942.009	0.0796537
942.177	0.07979401
942.344	0.08024967
942.511	0.08112194
942.678	0.08064438
942.846	0.08063712
943.013	0.08105219
943.18	0.08077023
943.347	0.08084204
943.514	0.0809731
943.682	0.08114892
943.849	0.08043131
944.016	0.08051709
944.183	0.08039242
944.35	0.08053341
944.517	0.08089123
944.684	0.08084236
944.851	0.07973934
945.018	0.08028761
945.185	0.07986527
945.352	0.08020735
945.519	0.08026299
945.686	0.08063339
945.853	0.08048491
946.02	0.08074507
946.187	0.08049157
946.353	0.08101077
946.52	0.08049987
946.687	0.07959469
946.854	0.07955981
947.021	0.0785889
947.187	0.07803289
947.354	0.07724811
947.521	0.07640826
947.687	0.07576089
947.854	0.07551587
948.021	0.07453777
948.187	0.07469765
948.354	0.07399229
948.52	0.07384808
948.687	0.07311977
948.854	0.07254673
949.02	0.07167864
949.187	0.07150602
949.353	0.07099633
949.52	0.07106504
949.686	0.07105364
949.852	0.07094989
950.019	0.07111931
950.185	0.07118482
950.352	0.07033145
950.518	0.06965481
950.684	0.06990668
950.851	0.06961794
951.017	0.06923455
951.183	0.06832061
951.349	0.06805055
951.516	0.06745914
951.682	0.06728351
951.848	0.06621057
952.014	0.06557397
952.18	0.0651356
952.346	0.06475666
952.512	0.0639821
952.679	0.06396261
952.845	0.06368018
953.011	0.06343433
953.177	0.06327646
953.343	0.0625448
953.509	0.06225656
953.675	0.06204782
953.841	0.06194211
954.007	0.06153686
954.172	0.06118113
954.338	0.06081999
954.504	0.0607929
954.67	0.06077178
954.836	0.06061499
955.002	0.06003473
955.167	0.05980022
955.333	0.05941282
955.499	0.05927489
955.665	0.05934901
955.83	0.05916983
955.996	0.05944326
956.162	0.05929315
956.327	0.05917533
956.493	0.05899576
956.659	0.05847194
956.824	0.05815352
956.99	0.05766254
957.155	0.05694494
957.321	0.05669452
957.486	0.05640252
957.652	0.05605172
957.817	0.05602586
957.983	0.05577256
958.148	0.05579025
958.314	0.05564678
958.479	0.05505084
958.644	0.05460097
958.81	0.05467372
958.975	0.05451449
959.14	0.05440971
959.306	0.05397487
959.471	0.05370938
959.636	0.05358228
959.801	0.05337373
959.967	0.05275422
960.132	0.05233324
960.297	0.05191778
960.462	0.05160458
960.627	0.05133804
960.792	0.0513544
960.957	0.05117988
961.123	0.05162274
961.288	0.05153593
961.453	0.05165154
961.618	0.05176189
961.783	0.05177698
961.948	0.05147376
962.113	0.0516133
962.277	0.05148113
962.442	0.05146937
962.607	0.05117895
962.772	0.05086975
962.937	0.05090544
963.102	0.05103466
963.267	0.05100081
963.431	0.05067024
963.596	0.0506226
963.761	0.05064158
963.926	0.05087325
964.09	0.05061701
964.255	0.05065414
964.42	0.0506249
964.584	0.05057304
964.749	0.05044143
964.914	0.05068581
965.078	0.05050071
965.243	0.05020316
965.407	0.05008894
965.572	0.04969695
965.736	0.04931649
965.901	0.04904409
966.065	0.04892507
966.23	0.0488478
966.394	0.04876872
966.559	0.04857378
966.723	0.04856298
966.887	0.04875125
967.052	0.04888374
967.216	0.04842719
967.38	0.04807157
967.545	0.04827891
967.709	0.04834455
967.873	0.04858344
968.037	0.04865887
968.202	0.04831758
968.366	0.04837365
968.53	0.04840971
968.694	0.04855946
968.858	0.04832288
969.022	0.04789098
969.187	0.04761233
969.351	0.0478714
969.515	0.04781459
969.679	0.04800001
969.843	0.04762638
970.007	0.0474811
970.171	0.04764069
970.335	0.04748347
970.499	0.04710079
970.662	0.04666263
970.826	0.04621905
970.99	0.04617322
971.154	0.04619301
971.318	0.04594476
971.482	0.04599102
971.645	0.0461328
971.809	0.04617883
971.973	0.0464086
972.137	0.04617717
972.3	0.04611044
972.464	0.04626419
972.628	0.04592123
972.791	0.04579004
972.955	0.04579094
973.119	0.04566938
973.282	0.04571875
973.446	0.04598312
973.609	0.04577627
973.773	0.04624654
973.936	0.04642018
974.1	0.04654848
974.263	0.0466693
974.427	0.04672329
974.59	0.04642081
974.754	0.04639697
974.917	0.04616898
975.08	0.04585292
975.244	0.04570353
975.407	0.04539165
975.57	0.04508539
975.734	0.04488247
975.897	0.0447838
976.06	0.0446295
976.223	0.04455233
976.387	0.04445683
976.55	0.04469142
976.713	0.04469684
976.876	0.04490281
977.039	0.04463851
977.202	0.04445378
977.365	0.04459846
977.528	0.04445425
977.692	0.04409474
977.855	0.04408777
978.018	0.04379865
978.181	0.04384421
978.344	0.04406116
978.506	0.04384094
978.669	0.0436134
978.832	0.04349242
978.995	0.04332954
979.158	0.04334892
979.321	0.04327069
979.484	0.04298657
979.646	0.04277717
979.809	0.04316846
979.972	0.04296631
980.135	0.04311076
980.297	0.0426757
980.46	0.04254973
980.623	0.0427762
980.786	0.04291878
980.948	0.04271372
981.111	0.04259823
981.273	0.04245385
981.436	0.04255545
981.599	0.04267696
981.761	0.04243518
981.924	0.04269163
982.086	0.04262338
982.249	0.04288854
982.411	0.04274716
982.573	0.04299824
982.736	0.04295984
982.898	0.04273959
983.061	0.04222166
983.223	0.04196112
983.385	0.04166734
983.548	0.0416695
983.71	0.04147242
983.872	0.04128621
984.034	0.04155012
984.197	0.04150314
984.359	0.04150997
984.521	0.04161285
984.683	0.04166693
984.845	0.04156125
985.008	0.04177877
985.17	0.04196674
985.332	0.04212142
985.494	0.04223558
985.656	0.04232042
985.818	0.0421966
985.98	0.04214483
986.142	0.04182332
986.304	0.04120814
986.466	0.04136339
986.628	0.04121825
986.79	0.04109752
986.952	0.04116037
987.113	0.04110999
987.275	0.0411554
987.437	0.04126653
987.599	0.04082595
987.761	0.04085765
987.922	0.04087453
988.084	0.04071501
988.246	0.04051175
988.408	0.0400519
988.569	0.03970076
988.731	0.03953351
988.893	0.03915481
989.054	0.03898084
989.216	0.03885187
989.377	0.03867403
989.539	0.03888311
989.701	0.03875342
989.862	0.03854094
990.024	0.03863038
990.185	0.03833964
990.347	0.0382776
990.508	0.03870208
990.669	0.03886411
990.831	0.03888184
990.992	0.03873026
991.154	0.03892077
991.315	0.03895424
991.476	0.039049
991.638	0.03881117
991.799	0.03871505
991.96	0.03911686
992.121	0.03963125
992.283	0.0395429
992.444	0.03972953
992.605	0.03970543
992.766	0.03964279
992.927	0.03954383
993.088	0.03902452
993.249	0.03879304
993.41	0.03868303
993.572	0.03856542
993.733	0.03846695
993.894	0.03830293
994.055	0.03788356
994.216	0.0382478
994.376	0.03802687
994.537	0.0380074
994.698	0.0380275
994.859	0.03767204
995.02	0.03772624
995.181	0.0377288
995.342	0.03758891
995.503	0.03764181
995.663	0.03771677
995.824	0.03746033
995.985	0.03789709
996.146	0.03816547
996.306	0.03834716
996.467	0.03803581
996.628	0.0380814
996.788	0.03780245
996.949	0.03797004
997.11	0.03759275
997.27	0.03737742
997.431	0.03746056
997.591	0.03741904
997.752	0.03721083
997.912	0.03713377
998.073	0.03683705
998.233	0.03711932
998.394	0.03708591
998.554	0.03711031
998.714	0.0373949
998.875	0.03761506
999.035	0.03736213
999.196	0.03783828
999.356	0.03727963
999.516	0.03738251
999.676	0.03733736
999.837	0.03713777
999.997	0.03687476
1000.157	0.03691892
1000.317	0.03640054
1000.477	0.03668407
1000.638	0.03608641
1000.798	0.03622012
1000.958	0.03670722
1001.118	0.03680918
1001.278	0.03699879
1001.438	0.03722092
1001.598	0.03733344
1001.758	0.03818935
1001.918	0.03819135
1002.078	0.03779579
1002.238	0.03726021
1002.398	0.03711051
1002.558	0.03698209
1002.718	0.03646381
1002.878	0.03570943
1003.037	0.03542256
1003.197	0.03543402
1003.357	0.03579057
1003.517	0.0359727
1003.677	0.03603784
1003.836	0.03633607
1003.996	0.03683719
1004.156	0.03675446
1004.315	0.0366874
1004.475	0.03672853
1004.635	0.0369327
1004.794	0.03753843
1004.954	0.03787312
1005.114	0.03740275
1005.273	0.03739297
1005.433	0.0374268
1005.592	0.03726888
1005.752	0.03657129
1005.911	0.03569845
1006.071	0.03538219
1006.23	0.03509609
1006.389	0.03561087
1006.549	0.03519955
1006.708	0.03499247
1006.868	0.03594851
1007.027	0.0356072
1007.186	0.03566719
1007.345	0.03562659
1007.505	0.0347844
1007.664	0.03505906
1007.823	0.0351613
1007.982	0.03448202
1008.142	0.03420164
1008.301	0.03441275
1008.46	0.03461679
1008.619	0.034913
1008.778	0.03521535
1008.937	0.03509946
1009.096	0.03508269
1009.255	0.03582911
1009.414	0.0355758
1009.573	0.03563076
1009.732	0.03610182
1009.891	0.03575512
1010.05	0.03644483
1010.209	0.03673691
1010.368	0.03618255
1010.527	0.03574844
1010.686	0.03535879
1010.845	0.03474096
1011.003	0.034214
1011.162	0.03431854
1011.321	0.03436174
1011.48	0.03532502
1011.638	0.03520235
1011.797	0.03669161
1011.956	0.0371544
1012.115	0.03783119
1012.273	0.03703798
1012.432	0.03678007
1012.59	0.03615166
1012.749	0.03730213
1012.908	0.0366684
1013.066	0.03588546
1013.225	0.03517994
1013.383	0.03624609
1013.542	0.03608297
1013.7	0.0361129
1013.859	0.03533768
1014.017	0.03513562
1014.175	0.03621811
1014.334	0.03660595
1014.492	0.03653145
1014.65	0.03660415
1014.809	0.03746542
1014.967	0.03749583
1015.125	0.03740112
1015.284	0.03732178
1015.442	0.03782282
1015.6	0.03671783
1015.758	0.03600518
1015.916	0.03530635
1016.075	0.0353128
1016.233	0.03637591
1016.391	0.03560825
1016.549	0.0360118
1016.707	0.03649918
1016.865	0.03784614
1017.023	0.03780806
1017.181	0.03694079
1017.339	0.03574181
1017.497	0.03561739
1017.655	0.03509876
1017.813	0.03567898
1017.971	0.03548798
1018.129	0.03586057
1018.286	0.03786207
1018.444	0.03833757
1018.602	0.03855426
1018.76	0.0384212
1018.918	0.03843963
1019.075	0.03991322
1019.233	0.03959663
1019.391	0.03878984
1019.549	0.03824274
1019.706	0.03877503
1019.864	0.03962441
1020.022	0.04041978
1020.179	0.0378528
1020.337	0.03892768
1020.494	0.03849981
1020.652	0.0384864
1020.809	0.03980104
1020.967	0.03864512
1021.124	0.03845293
1021.282	0.03987771
1021.439	0.0400155
1021.597	0.04024589
1021.754	0.0413643
1021.911	0.04101568
1022.069	0.04131559
1022.226	0.04199766
1022.384	0.04158875
1022.541	0.04164832
1022.698	0.04207285
1022.855	0.04149912
1023.013	0.04145124
1023.17	0.04193604
1023.327	0.04128182
1023.484	0.04227656
1023.641	0.04221476
1023.798	0.04395519
1023.956	0.04585613
1024.113	0.04635795
1024.27	0.04642046
1024.427	0.0464835
1024.584	0.046649
1024.741	0.04527269
1024.898	0.04353714
1025.055	0.04211173
1025.212	0.04124961
1025.369	0.04096482
1025.525	0.04138306
1025.682	0.04060383
1025.839	0.0426068
1025.996	0.04361009
1026.153	0.04373
1026.31	0.04390504
1026.466	0.04452738
1026.623	0.04559738
1026.78	0.04573186
1026.937	0.04584354
1027.093	0.04614691
1027.25	0.04633156
1027.407	0.04647044
1027.563	0.04777069
1027.72	0.04683908
1027.876	0.04663331
1028.033	0.04594432
1028.19	0.04623245
1028.346	0.04695016
1028.503	0.04870342
1028.659	0.04746397
1028.816	0.04792315
1028.972	0.04827424
1029.128	0.04890123
1029.285	0.04931638
1029.441	0.05011717
1029.598	0.04680502
1029.754	0.04952768
1029.91	0.04804745
1030.067	0.0487157
1030.223	0.04941474
1030.379	0.0491016
1030.535	0.04965503
1030.691	0.05218349
1030.848	0.04961115
1031.004	0.05066852
1031.16	0.05068676
1031.316	0.05169162
1031.472	0.05342147
1031.628	0.05368634
1031.784	0.05540477
1031.94	0.0576203
1032.096	0.05957153
1032.252	0.05993703
1032.408	0.05860625
1032.564	0.05559069
1032.72	0.05262653
1032.876	0.04947129
1033.032	0.04967456
1033.188	0.04620294
1033.344	0.04899415
1033.5	0.05132083
1033.655	0.05244886
1033.811	0.05518621
1033.967	0.05846054
