Data from 0_1_mm_pl_50pc_Absorbance__0__15-27-34-188.txt Node

Date: Fri Feb 24 15:27:34 CET 2023
User: Ange
Spectrometer: FLMT08341
Trigger mode: 0
Integration Time (sec): 1.000000E-2
Scans to average: 400
Electric dark correction enabled: true
Nonlinearity correction enabled: false
Boxcar width: 3
XAxis mode: Wavelengths
Number of Pixels in Spectrum: 3648
>>>>>Begin Spectral Data<<<<<
345.271	0.05073895
345.487	0.03011389
345.704	0.03374591
345.921	0.03095661
346.137	0.02784431
346.354	0.01974629
346.571	-0.01962982
346.787	-0.09827579
347.004	-0.02668718
347.22	0.06863723
347.437	0.03711671
347.653	0.06122263
347.87	-0.22919225
348.086	-0.39711335
348.303	0.29981922
348.519	0.66794166
348.736	0.64765114
348.952	0.66291103
349.169	0.69642971
349.385	0.75060882
349.601	0.74517752
349.818	0.73405813
350.034	0.7201168
350.251	0.71802375
350.467	0.7227606
350.683	0.68764061
350.9	0.67876649
351.116	0.66759944
351.332	0.66275696
351.549	0.68448849
351.765	0.70298472
351.981	0.71234914
352.197	0.74811326
352.414	0.78500279
352.63	0.80159898
352.846	0.82004486
353.062	0.79096816
353.278	0.7667276
353.495	0.79556197
353.711	0.79439326
353.927	0.79436713
354.143	0.79803998
354.359	0.78635636
354.575	0.79182789
354.792	0.83161145
355.008	0.80525043
355.224	0.79706182
355.44	0.78657886
355.656	0.77989771
355.872	0.79131543
356.088	0.84903932
356.304	0.84080406
356.52	0.84076788
356.736	0.84264505
356.952	0.8539844
357.168	0.8591166
357.384	0.87344855
357.6	0.82818366
357.816	0.84888995
358.032	0.8728682
358.248	0.91471769
358.464	0.90482126
358.679	0.91541548
358.895	0.9173587
359.111	0.93854624
359.327	0.89884903
359.543	0.9023138
359.759	0.90020779
359.974	0.90139776
360.19	0.88616932
360.406	0.88747324
360.622	0.88027523
360.838	0.87726835
361.053	0.88475074
361.269	0.88378266
361.485	0.89061524
361.701	0.90825659
361.916	0.88467273
362.132	0.88283945
362.348	0.89671282
362.563	0.8909212
362.779	0.88094895
362.995	0.89084457
363.21	0.89799938
363.426	0.90858235
363.641	0.91115962
363.857	0.9173086
364.073	0.91024708
364.288	0.8964429
364.504	0.91082119
364.719	0.91230992
364.935	0.91020118
365.15	0.91872354
365.366	0.92189564
365.581	0.9372371
365.797	0.9466875
366.012	0.92269052
366.228	0.90264917
366.443	0.92300157
366.658	0.91680813
366.874	0.90579763
367.089	0.9123355
367.305	0.91928443
367.52	0.92401891
367.735	0.93172265
367.951	0.91526908
368.166	0.91927273
368.381	0.94168061
368.597	0.92821363
368.812	0.93797059
369.027	0.9517532
369.243	0.9640009
369.458	1.00090546
369.673	1.0087477
369.888	1.00381953
370.104	0.99991532
370.319	1.00609737
370.534	0.99292024
370.749	0.98664391
370.964	0.97744002
371.179	0.97513384
371.395	0.9674037
371.61	0.98124628
371.825	0.96216968
372.04	0.96543064
372.255	0.95317793
372.47	0.9396792
372.685	0.92462456
372.9	0.92106493
373.115	0.90929369
373.33	0.91560999
373.545	0.91486167
373.76	0.92423019
373.975	0.91684686
374.19	0.91482866
374.405	0.91901641
374.62	0.9321448
374.835	0.94746109
375.05	0.94320712
375.265	0.94078531
375.48	0.94990627
375.695	0.9765309
375.91	0.96499253
376.125	0.93909603
376.339	0.91189918
376.554	0.91307232
376.769	0.91223574
376.984	0.90466111
377.199	0.90001405
377.414	0.89582354
377.628	0.91094602
377.843	0.92035519
378.058	0.920242
378.273	0.92750186
378.487	0.93146638
378.702	0.92970665
378.917	0.93180667
379.131	0.92119732
379.346	0.90561643
379.561	0.89639832
379.775	0.88305507
379.99	0.87013024
380.205	0.85486531
380.419	0.84335481
380.634	0.83041639
380.848	0.83544678
381.063	0.83447161
381.278	0.84019513
381.492	0.83227774
381.707	0.83721558
381.921	0.83723263
382.136	0.8498276
382.35	0.84382009
382.565	0.83494419
382.779	0.83116266
382.994	0.83255292
383.208	0.82006935
383.422	0.82698795
383.637	0.81784997
383.851	0.8195572
384.066	0.82513011
384.28	0.82458552
384.494	0.82492073
384.709	0.82967216
384.923	0.82122736
385.137	0.81315394
385.352	0.80795621
385.566	0.80678656
385.78	0.79745664
385.995	0.79086254
386.209	0.7859194
386.423	0.78853584
386.637	0.7894546
386.852	0.78131582
387.066	0.77500162
387.28	0.76927552
387.494	0.77085285
387.708	0.76719657
387.923	0.75990053
388.137	0.76053187
388.351	0.76264217
388.565	0.76365116
388.779	0.76397839
388.993	0.76960442
389.207	0.76753164
389.421	0.76759868
389.635	0.75976739
389.85	0.75309619
390.064	0.74673088
390.278	0.74486977
390.492	0.73860659
390.706	0.73501637
390.92	0.73022815
391.134	0.73232503
391.348	0.73921563
391.561	0.73496284
391.775	0.72917674
391.989	0.72080399
392.203	0.7202183
392.417	0.71968951
392.631	0.71866582
392.845	0.71046811
393.059	0.7109946
393.273	0.70744229
393.486	0.70249557
393.7	0.69508081
393.914	0.69333244
394.128	0.68736982
394.342	0.68291693
394.555	0.6741534
394.769	0.67148445
394.983	0.6721972
395.197	0.6728895
395.41	0.66928804
395.624	0.66843863
395.838	0.66494705
396.051	0.67030264
396.265	0.66532797
396.479	0.66236389
396.692	0.65926447
396.906	0.65359667
397.12	0.64901051
397.333	0.64949595
397.547	0.64328437
397.76	0.64480077
397.974	0.6428922
398.187	0.64133271
398.401	0.64111762
398.614	0.63872403
398.828	0.63443864
399.041	0.63255114
399.255	0.62898064
399.468	0.62528841
399.682	0.62225963
399.895	0.62036497
400.109	0.61756449
400.322	0.61460066
400.536	0.60787462
400.749	0.60781224
400.962	0.60583721
401.176	0.60215351
401.389	0.59885755
401.602	0.59326736
401.816	0.59213874
402.029	0.59347497
402.242	0.58920223
402.456	0.5867016
402.669	0.58283181
402.882	0.57703221
403.095	0.57834113
403.309	0.57547445
403.522	0.57268525
403.735	0.5693094
403.948	0.56670651
404.161	0.56900557
404.375	0.5690569
404.588	0.56669192
404.801	0.5645056
405.014	0.56113628
405.227	0.5615363
405.44	0.56076492
405.653	0.55869335
405.866	0.55521559
406.079	0.55228092
406.293	0.54971878
406.506	0.54785439
406.719	0.54540103
406.932	0.54211813
407.145	0.53772011
407.358	0.5389423
407.571	0.53610074
407.784	0.53453726
407.996	0.53373955
408.209	0.5298729
408.422	0.52739694
408.635	0.52610303
408.848	0.52321768
409.061	0.52027674
409.274	0.51779521
409.487	0.51493579
409.7	0.51390708
409.912	0.5134309
410.125	0.51172034
410.338	0.5094978
410.551	0.50811919
410.764	0.50659035
410.976	0.50522747
411.189	0.50297313
411.402	0.50015678
411.615	0.49868709
411.827	0.49706317
412.04	0.49625648
412.253	0.49505088
412.465	0.49297765
412.678	0.49140009
412.891	0.49083846
413.103	0.48705965
413.316	0.48540335
413.529	0.48507682
413.741	0.48407947
413.954	0.48343531
414.166	0.48218223
414.379	0.47983964
414.591	0.4805035
414.804	0.47834784
415.016	0.47624033
415.229	0.47378211
415.441	0.47124641
415.654	0.47058072
415.866	0.46931116
416.079	0.46795531
416.291	0.46718232
416.504	0.46659238
416.716	0.46543938
416.928	0.46459735
417.141	0.46244621
417.353	0.46141744
417.566	0.45863175
417.778	0.4576905
417.99	0.45478758
418.203	0.45304444
418.415	0.45169974
418.627	0.45112486
418.839	0.45002288
419.052	0.45072849
419.264	0.4495632
419.476	0.44929127
419.688	0.44855212
419.901	0.44744812
420.113	0.44604148
420.325	0.44462583
420.537	0.44214795
420.749	0.44110811
420.961	0.44001968
421.174	0.4389156
421.386	0.43753756
421.598	0.43650844
421.81	0.43558329
422.022	0.43445883
422.234	0.43302575
422.446	0.43155386
422.658	0.42990103
422.87	0.42913582
423.082	0.42792742
423.294	0.42656061
423.506	0.42633107
423.718	0.42522637
423.93	0.42403475
424.142	0.42316649
424.354	0.42170123
424.566	0.42077167
424.778	0.4202398
424.99	0.41872844
425.202	0.41759786
425.414	0.41679513
425.625	0.41677375
425.837	0.41568005
426.049	0.41505912
426.261	0.4138349
426.473	0.41263441
426.684	0.41183245
426.896	0.41131589
427.108	0.40974398
427.32	0.40951759
427.531	0.40826157
427.743	0.40751718
427.955	0.40773953
428.167	0.40681142
428.378	0.40585273
428.59	0.40506422
428.802	0.40438372
429.013	0.40331583
429.225	0.40261425
429.436	0.4013286
429.648	0.40119319
429.86	0.40083964
430.071	0.40023461
430.283	0.39943543
430.494	0.39889056
430.706	0.39804707
430.917	0.39704637
431.129	0.39618578
431.34	0.39502786
431.552	0.39484178
431.763	0.39390187
431.975	0.39396318
432.186	0.39299121
432.398	0.39245178
432.609	0.39092196
432.821	0.39044528
433.032	0.38928951
433.243	0.38846347
433.455	0.38743798
433.666	0.38712041
433.877	0.38707721
434.089	0.38641346
434.3	0.38565649
434.511	0.38496524
434.723	0.38459343
434.934	0.38355759
435.145	0.38246417
435.356	0.38112524
435.568	0.38083143
435.779	0.38019729
435.99	0.3792049
436.201	0.37865695
436.412	0.37803445
436.624	0.37786518
436.835	0.37784918
437.046	0.37774234
437.257	0.37720034
437.468	0.37754095
437.679	0.37715407
437.89	0.37670319
438.101	0.37642141
438.312	0.37565271
438.523	0.37492114
438.734	0.37454086
438.945	0.37373577
439.156	0.37282713
439.367	0.37243024
439.578	0.37200595
439.789	0.37128441
440	0.37092039
440.211	0.37022781
440.422	0.36983497
440.633	0.37004834
440.844	0.36930435
441.055	0.36866087
441.266	0.36888718
441.477	0.36814826
441.687	0.36787071
441.898	0.36744162
442.109	0.36639076
442.32	0.36618406
442.531	0.36537666
442.741	0.36417126
442.952	0.3640082
443.163	0.36366347
443.374	0.36316965
443.584	0.36270296
443.795	0.36244309
444.006	0.36234663
444.216	0.36223399
444.427	0.36157397
444.638	0.36093128
444.848	0.36036302
445.059	0.36007427
445.27	0.3594834
445.48	0.35879271
445.691	0.35827624
445.901	0.35812627
446.112	0.35790014
446.323	0.35727401
446.533	0.35653752
446.744	0.3561651
446.954	0.35598981
447.165	0.35562783
447.375	0.35544491
447.586	0.35513681
447.796	0.3550856
448.006	0.35509294
448.217	0.35509282
448.427	0.35479095
448.638	0.35443007
448.848	0.35361511
449.058	0.35328839
449.269	0.35305926
449.479	0.35268529
449.689	0.35223887
449.9	0.35178873
450.11	0.35143644
450.32	0.35176693
450.531	0.35134451
450.741	0.3507398
450.951	0.35070745
451.161	0.3504125
451.372	0.35014413
451.582	0.35057268
451.792	0.34981836
452.002	0.34960914
452.212	0.34944517
452.422	0.34921032
452.633	0.34869276
452.843	0.34872886
453.053	0.34771949
453.263	0.34752577
453.473	0.34712829
453.683	0.34718511
453.893	0.34651654
454.103	0.34665077
454.313	0.34631043
454.523	0.34618612
454.733	0.34595739
454.943	0.34602296
455.153	0.34556886
455.363	0.34557
455.573	0.34523969
455.783	0.34520528
455.993	0.34501126
456.203	0.34518003
456.413	0.34469209
456.623	0.34453236
456.833	0.34464875
457.042	0.34434928
457.252	0.34401268
457.462	0.3439124
457.672	0.34351711
457.882	0.34358072
458.091	0.34334212
458.301	0.34278518
458.511	0.34265624
458.721	0.34259398
458.931	0.34240352
459.14	0.34230816
459.35	0.3423767
459.56	0.34246493
459.769	0.3430451
459.979	0.34289876
460.189	0.34277387
460.398	0.3425927
460.608	0.34241643
460.817	0.34212964
461.027	0.34201519
461.237	0.34141615
461.446	0.34140903
461.656	0.34141986
461.865	0.34136443
462.075	0.34125164
462.284	0.34119528
462.494	0.34105631
462.703	0.34081707
462.913	0.3407279
463.122	0.34038698
463.332	0.3402392
463.541	0.34016153
463.751	0.33991382
463.96	0.3399099
464.169	0.3398511
464.379	0.34004963
464.588	0.34011163
464.797	0.34007286
465.007	0.33997588
465.216	0.3400231
465.425	0.33993777
465.635	0.34005046
465.844	0.33978075
466.053	0.33972227
466.263	0.33973581
466.472	0.33967504
466.681	0.33961623
466.89	0.33943501
467.099	0.33941116
467.309	0.33942745
467.518	0.33947202
467.727	0.33957253
467.936	0.33960733
468.145	0.33973805
468.354	0.33989013
468.563	0.33982525
468.772	0.33990856
468.982	0.33987616
469.191	0.34002033
469.4	0.33995068
469.609	0.34008186
469.818	0.34039679
470.027	0.34055024
470.236	0.34057117
470.445	0.34077108
470.654	0.34057475
470.863	0.34062339
471.072	0.34052606
471.28	0.34027253
471.489	0.34046869
471.698	0.34045079
471.907	0.34047958
472.116	0.34075706
472.325	0.34095757
472.534	0.34120421
472.743	0.34122943
472.951	0.34148998
473.16	0.34169431
473.369	0.34173205
473.578	0.34190396
473.786	0.34211219
473.995	0.34208553
474.204	0.34240058
474.413	0.34227794
474.621	0.34240799
474.83	0.34274141
475.039	0.34283466
475.247	0.3431758
475.456	0.343515
475.665	0.34380458
475.873	0.34398174
476.082	0.34403227
476.291	0.34418016
476.499	0.34447852
476.708	0.34437124
476.916	0.34463469
477.125	0.34479378
477.333	0.3451127
477.542	0.3456005
477.75	0.34577379
477.959	0.3460744
478.167	0.34654478
478.376	0.34671284
478.584	0.34697805
478.793	0.34714887
479.001	0.34730485
479.209	0.34766066
479.418	0.34787773
479.626	0.34805959
479.834	0.34830758
480.043	0.34858014
480.251	0.34875519
480.459	0.3490046
480.668	0.34917205
480.876	0.34933672
481.084	0.34956952
481.293	0.34983985
481.501	0.35008874
481.709	0.35053037
481.917	0.35083141
482.125	0.35112836
482.334	0.35153378
482.542	0.35187483
482.75	0.35211388
482.958	0.35244967
483.166	0.35276618
483.374	0.35308773
483.583	0.35336581
483.791	0.35358236
483.999	0.35367982
484.207	0.35409501
484.415	0.35440078
484.623	0.35466029
484.831	0.354972
485.039	0.35539965
485.247	0.35570254
485.455	0.35625644
485.663	0.35657872
485.871	0.35687476
486.079	0.35716098
486.287	0.35751846
486.495	0.35778558
486.702	0.35807279
486.91	0.35844257
487.118	0.3587797
487.326	0.35915449
487.534	0.35955141
487.742	0.35996051
487.95	0.36041624
488.157	0.36100572
488.365	0.36148488
488.573	0.36196904
488.781	0.36242067
488.988	0.36295935
489.196	0.36347025
489.404	0.36389189
489.612	0.36430921
489.819	0.36482051
490.027	0.36524797
490.235	0.36566344
490.442	0.36616594
490.65	0.36656928
490.857	0.36715053
491.065	0.36758546
491.273	0.3679672
491.48	0.36845913
491.688	0.36893573
491.895	0.36946384
492.103	0.3699329
492.31	0.3703763
492.518	0.3708705
492.725	0.3713581
492.933	0.37186182
493.14	0.37233492
493.348	0.37269867
493.555	0.37319886
493.763	0.37369104
493.97	0.37417367
494.177	0.37461858
494.385	0.37513798
494.592	0.37572305
494.8	0.37620343
495.007	0.37677583
495.214	0.37728283
495.422	0.37786444
495.629	0.3784748
495.836	0.37889823
496.043	0.37952541
496.251	0.38022914
496.458	0.38064663
496.665	0.38120703
496.872	0.38175912
497.08	0.38231414
497.287	0.38295206
497.494	0.38339761
497.701	0.38391262
497.908	0.38453447
498.115	0.38506611
498.322	0.38558384
498.53	0.3860777
498.737	0.38666577
498.944	0.3872879
499.151	0.38788537
499.358	0.38854242
499.565	0.38910769
499.772	0.38976218
499.979	0.39044141
500.186	0.39100845
500.393	0.39163082
500.6	0.39217583
500.807	0.39279908
501.014	0.39344599
501.221	0.39403717
501.427	0.39453983
501.634	0.39520462
501.841	0.39581675
502.048	0.39654156
502.255	0.39704212
502.462	0.39767327
502.669	0.39838574
502.875	0.39912271
503.082	0.39970947
503.289	0.40020857
503.496	0.40081437
503.702	0.40149564
503.909	0.4021371
504.116	0.40273619
504.323	0.40337744
504.529	0.40413317
504.736	0.40494391
504.943	0.40546106
505.149	0.40628729
505.356	0.40705991
505.563	0.40777891
505.769	0.40849849
505.976	0.40916862
506.182	0.40992913
506.389	0.41077856
506.595	0.41148047
506.802	0.41211498
507.008	0.41276224
507.215	0.41343407
507.421	0.41412904
507.628	0.41475276
507.834	0.41534164
508.041	0.41595762
508.247	0.41666153
508.454	0.41742297
508.66	0.41808712
508.866	0.4187911
509.073	0.41956087
509.279	0.42047188
509.486	0.42127207
509.692	0.42201451
509.898	0.42278243
510.105	0.42364062
510.311	0.42436074
510.517	0.42513069
510.723	0.42582212
510.93	0.42652083
511.136	0.42741058
511.342	0.42815971
511.548	0.42885479
511.754	0.429747
511.961	0.43043798
512.167	0.43116069
512.373	0.4319889
512.579	0.43265359
512.785	0.4334109
512.991	0.43429711
513.197	0.43501058
513.404	0.43585059
513.61	0.43662171
513.816	0.43742596
514.022	0.43827025
514.228	0.43907811
514.434	0.43977406
514.64	0.44049316
514.846	0.44126766
515.052	0.44210017
515.258	0.44279562
515.464	0.44348332
515.669	0.44424763
515.875	0.44506262
516.081	0.4459383
516.287	0.44682692
516.493	0.44773158
516.699	0.44847463
516.905	0.44926556
517.111	0.45005667
517.316	0.45092572
517.522	0.45181145
517.728	0.45262778
517.934	0.45335249
518.139	0.45427742
518.345	0.45509747
518.551	0.45604345
518.757	0.45689246
518.962	0.45764536
519.168	0.45846196
519.374	0.4592273
519.579	0.46004226
519.785	0.46093267
519.991	0.46172746
520.196	0.46248436
520.402	0.46329183
520.607	0.46412791
520.813	0.46517108
521.018	0.46601735
521.224	0.46675963
521.429	0.46764187
521.635	0.46849138
521.84	0.46934329
522.046	0.47019666
522.251	0.47094148
522.457	0.4718463
522.662	0.47282361
522.868	0.4736221
523.073	0.47448187
523.279	0.47527317
523.484	0.47608511
523.689	0.4768774
523.895	0.47769564
524.1	0.47858199
524.305	0.479466
524.511	0.480316
524.716	0.48128454
524.921	0.48217723
525.126	0.48312023
525.332	0.48405543
525.537	0.48493801
525.742	0.48591562
525.947	0.48690353
526.153	0.48772933
526.358	0.48872167
526.563	0.4895146
526.768	0.49032939
526.973	0.4912036
527.178	0.49197575
527.383	0.49279485
527.588	0.49375625
527.794	0.49448738
527.999	0.49544839
528.204	0.49638609
528.409	0.49715581
528.614	0.49807449
528.819	0.49898841
529.024	0.49983634
529.229	0.50075975
529.434	0.50176651
529.639	0.50261465
529.843	0.50354129
530.048	0.50438084
530.253	0.50519425
530.458	0.50613661
530.663	0.5070507
530.868	0.50791994
531.073	0.50875987
531.278	0.50967617
531.482	0.51057968
531.687	0.51148098
531.892	0.51228915
532.097	0.5130757
532.302	0.51395002
532.506	0.51486506
532.711	0.51569932
532.916	0.51663049
533.12	0.51755898
533.325	0.51836453
533.53	0.5193899
533.734	0.52013581
533.939	0.52092618
534.144	0.52180583
534.348	0.52263111
534.553	0.52349813
534.757	0.52442109
534.962	0.52522063
535.167	0.52624925
535.371	0.52724278
535.576	0.52822805
535.78	0.52918691
535.985	0.53006098
536.189	0.53091174
536.394	0.53185685
536.598	0.5325829
536.803	0.53350067
537.007	0.53434097
537.211	0.5352137
537.416	0.53606886
537.62	0.53702896
537.825	0.5378396
538.029	0.5389065
538.233	0.53962802
538.438	0.54058221
538.642	0.54130111
538.846	0.54222086
539.05	0.54303624
539.255	0.5438976
539.459	0.54466427
539.663	0.545563
539.867	0.5462972
540.072	0.54725792
540.276	0.54802155
540.48	0.54900124
540.684	0.54983686
540.888	0.55075958
541.092	0.55160026
541.297	0.55247589
541.501	0.5533029
541.705	0.55413277
541.909	0.55486088
542.113	0.55566683
542.317	0.55650381
542.521	0.55743396
542.725	0.55829055
542.929	0.55919364
543.133	0.56016033
543.337	0.56109035
543.541	0.56192819
543.745	0.56267564
543.949	0.56349276
544.153	0.56421452
544.357	0.56491933
544.56	0.56569199
544.764	0.56647067
544.968	0.56723736
545.172	0.56791087
545.376	0.56868787
545.58	0.56952726
545.783	0.57041124
545.987	0.57108532
546.191	0.57181409
546.395	0.57268112
546.598	0.57366503
546.802	0.57451384
547.006	0.57530598
547.21	0.57587558
547.413	0.57680676
547.617	0.57756801
547.821	0.57834607
548.024	0.57903885
548.228	0.57962308
548.431	0.58031753
548.635	0.58118467
548.839	0.58181316
549.042	0.58263397
549.246	0.58324142
549.449	0.58389515
549.653	0.58468036
549.856	0.5853864
550.06	0.58601566
550.263	0.58678258
550.467	0.58746195
550.67	0.58823494
550.874	0.58892662
551.077	0.58967676
551.28	0.59048985
551.484	0.59132731
551.687	0.59199721
551.891	0.59271301
552.094	0.59335873
552.297	0.59410755
552.501	0.59484788
552.704	0.59548764
552.907	0.59608553
553.11	0.59672881
553.314	0.59743712
553.517	0.59805264
553.72	0.59873919
553.923	0.59933072
554.127	0.60003228
554.33	0.60051585
554.533	0.60125418
554.736	0.60175504
554.939	0.60244729
555.142	0.60314142
555.345	0.60383549
555.549	0.60446867
555.752	0.60529579
555.955	0.60592259
556.158	0.60673271
556.361	0.60749955
556.564	0.6080363
556.767	0.60852759
556.97	0.60912321
557.173	0.60967811
557.376	0.61024648
557.579	0.61069025
557.782	0.61119288
557.984	0.61177464
558.187	0.61241193
558.39	0.61289239
558.593	0.61346706
558.796	0.61393188
558.999	0.61445588
559.202	0.61493197
559.404	0.61539224
559.607	0.6159165
559.81	0.61648925
560.013	0.61691937
560.216	0.61735002
560.418	0.61791436
560.621	0.61840476
560.824	0.61893302
561.026	0.61947332
561.229	0.61990925
561.432	0.62048738
561.634	0.62099757
561.837	0.62133395
562.04	0.62189375
562.242	0.62235484
562.445	0.62276523
562.647	0.62321674
562.85	0.62353915
563.053	0.62399879
563.255	0.62455833
563.458	0.62495522
563.66	0.6253964
563.863	0.62585803
564.065	0.62634944
564.268	0.62675744
564.47	0.62723092
564.672	0.62748433
564.875	0.62796408
565.077	0.62834644
565.28	0.62865054
565.482	0.62899283
565.684	0.62937511
565.887	0.62972838
566.089	0.6301961
566.291	0.63045291
566.494	0.63082586
566.696	0.63112963
566.898	0.63144991
567.1	0.63185344
567.303	0.6321305
567.505	0.63242052
567.707	0.63262267
567.909	0.63275989
568.111	0.6331288
568.314	0.63347777
568.516	0.63373116
568.718	0.63399308
568.92	0.6342625
569.122	0.63450828
569.324	0.63495282
569.526	0.63509342
569.728	0.63534354
569.93	0.6355885
570.132	0.63582891
570.334	0.63613274
570.536	0.63638599
570.738	0.6364179
570.94	0.6365322
571.142	0.63680096
571.344	0.63699149
571.546	0.63718633
571.748	0.63742339
571.95	0.63760093
572.152	0.63788898
572.354	0.63823816
572.555	0.63844955
572.757	0.63875463
572.959	0.63891762
573.161	0.6388885
573.363	0.63905041
573.564	0.63941332
573.766	0.63954714
573.968	0.63960809
574.17	0.63960673
574.371	0.63978433
574.573	0.63999029
574.775	0.64010539
574.976	0.63997485
575.178	0.64002154
575.38	0.63989356
575.581	0.63991766
575.783	0.64004629
575.985	0.64014903
576.186	0.64029372
576.388	0.64042167
576.589	0.64052945
576.791	0.64080591
576.992	0.64096847
577.194	0.64088395
577.395	0.64088506
577.597	0.64098687
577.798	0.64099126
578	0.64106312
578.201	0.64108622
578.402	0.64104593
578.604	0.64098703
578.805	0.64105194
579.007	0.6410489
579.208	0.64121413
579.409	0.64111733
579.611	0.64104083
579.812	0.64110824
580.013	0.64126195
580.215	0.64107416
580.416	0.64097017
580.617	0.6407817
580.818	0.64091392
581.019	0.64088315
581.221	0.64074434
581.422	0.64065815
581.623	0.64076932
581.824	0.64059837
582.025	0.640568
582.226	0.64037699
582.428	0.64039425
582.629	0.64037111
582.83	0.64031373
583.031	0.6401846
583.232	0.64029367
583.433	0.64023204
583.634	0.64009368
583.835	0.63996109
584.036	0.63989217
584.237	0.63975378
584.438	0.63966203
584.639	0.63938897
584.84	0.63935242
585.041	0.63925648
585.242	0.63919418
585.442	0.63905376
585.643	0.63908687
585.844	0.63897832
586.045	0.63899229
586.246	0.63870663
586.447	0.63862587
586.647	0.63832825
586.848	0.63824745
587.049	0.63797722
587.25	0.63780917
587.45	0.63759035
587.651	0.63754946
587.852	0.63734643
588.053	0.63741244
588.253	0.63714138
588.454	0.63704326
588.655	0.6368269
588.855	0.63660305
589.056	0.63640472
589.256	0.63634543
589.457	0.63600461
589.658	0.63588157
589.858	0.63560833
590.059	0.63548364
590.259	0.6353597
590.46	0.63518318
590.66	0.63497812
590.861	0.63493498
591.061	0.63477014
591.262	0.63472542
591.462	0.6346334
591.662	0.63458658
591.863	0.6344024
592.063	0.63429424
592.264	0.63413261
592.464	0.63399786
592.664	0.63378733
592.865	0.63368485
593.065	0.63326673
593.265	0.63315002
593.465	0.63288776
593.666	0.63267255
593.866	0.63241397
594.066	0.63231322
594.266	0.63202813
594.467	0.63177024
594.667	0.63149983
594.867	0.63132553
595.067	0.63099413
595.267	0.63084842
595.467	0.63053416
595.668	0.63026487
595.868	0.63022964
596.068	0.62999699
596.268	0.62971719
596.468	0.62956467
596.668	0.62933872
596.868	0.62907466
597.068	0.62887471
597.268	0.62863026
597.468	0.62839329
597.668	0.62809017
597.868	0.62791508
598.068	0.62768012
598.268	0.62749829
598.467	0.62744864
598.667	0.62730214
598.867	0.62714856
599.067	0.62721912
599.267	0.6270397
599.467	0.62686409
599.667	0.62654362
599.866	0.62631413
600.066	0.62610729
600.266	0.62584598
600.466	0.62552866
600.665	0.62527148
600.865	0.62507833
601.065	0.62508142
601.264	0.62476078
601.464	0.62453725
601.664	0.62452506
601.863	0.62434322
602.063	0.62432219
602.263	0.62395615
602.462	0.62382866
602.662	0.62373996
602.861	0.6235941
603.061	0.62330954
603.26	0.62310187
603.46	0.62273515
603.659	0.62267467
603.859	0.62243524
604.058	0.62222247
604.258	0.62214323
604.457	0.62215972
604.657	0.62188824
604.856	0.62163753
605.056	0.6215769
605.255	0.62132641
605.454	0.62113968
605.654	0.62083951
605.853	0.62055502
606.052	0.62045951
606.252	0.62045675
606.451	0.62025346
606.65	0.62021276
606.849	0.61991525
607.049	0.61975272
607.248	0.61954129
607.447	0.61944027
607.646	0.61933803
607.845	0.61919706
608.045	0.61893425
608.244	0.61904403
608.443	0.6189877
608.642	0.61893431
608.841	0.61873491
609.04	0.6185895
609.239	0.61861567
609.438	0.61850493
609.637	0.61841293
609.836	0.61835634
610.035	0.61821833
610.234	0.61828825
610.433	0.61825115
610.632	0.61809206
610.831	0.61822885
611.03	0.61809024
611.229	0.61820637
611.428	0.61822258
611.627	0.61817856
611.826	0.61816021
612.025	0.61823346
612.224	0.6180949
612.422	0.61812193
612.621	0.61791321
612.82	0.61794622
613.019	0.61788348
613.218	0.61782528
613.416	0.6175842
613.615	0.6176467
613.814	0.61749738
614.012	0.61749479
614.211	0.61725688
614.41	0.61725389
614.608	0.61730393
614.807	0.6174358
615.006	0.61740248
615.204	0.61740955
615.403	0.61750108
615.602	0.6176715
615.8	0.61774412
615.999	0.61755056
616.197	0.61751757
616.396	0.61757787
616.594	0.61760672
616.793	0.61767997
616.991	0.61764655
617.19	0.61753601
617.388	0.61778444
617.586	0.61787517
617.785	0.61784803
617.983	0.61799136
618.182	0.61792628
618.38	0.61792757
618.578	0.61805916
618.777	0.61807225
618.975	0.61811163
619.173	0.61818721
619.372	0.61824668
619.57	0.61826164
619.768	0.61848891
619.966	0.61856545
620.165	0.61858917
620.363	0.61877329
620.561	0.6187713
620.759	0.61885655
620.957	0.61900468
621.155	0.61911979
621.354	0.6192118
621.552	0.61956025
621.75	0.61957978
621.948	0.6198861
622.146	0.62001038
622.344	0.62007423
622.542	0.62015394
622.74	0.6202396
622.938	0.62014332
623.136	0.62030025
623.334	0.62039677
623.532	0.62042935
623.73	0.62070188
623.928	0.62092361
624.126	0.62125084
624.324	0.62157821
624.522	0.62153929
624.719	0.62154876
624.917	0.62182802
625.115	0.62182682
625.313	0.62193538
625.511	0.6220982
625.708	0.62203866
625.906	0.62229444
626.104	0.62245868
626.302	0.62271099
626.499	0.62297689
626.697	0.62313668
626.895	0.62316041
627.093	0.62345357
627.29	0.62382157
627.488	0.62421946
627.686	0.62446828
627.883	0.6246885
628.081	0.62478922
628.278	0.6252452
628.476	0.62542658
628.673	0.62553118
628.871	0.62566537
629.068	0.62581246
629.266	0.62613371
629.463	0.62645673
629.661	0.62650407
629.858	0.62667705
630.056	0.62688127
630.253	0.6270269
630.451	0.62724948
630.648	0.62738972
630.845	0.62759592
631.043	0.62784194
631.24	0.62834735
631.438	0.62868187
631.635	0.62899374
631.832	0.62910155
632.029	0.62932762
632.227	0.62958117
632.424	0.62985966
632.621	0.62987924
632.818	0.63006631
633.016	0.63032469
633.213	0.63062338
633.41	0.63095019
633.607	0.63119832
633.804	0.63133686
634.001	0.63155721
634.199	0.63182768
634.396	0.63216676
634.593	0.63241774
634.79	0.63274651
634.987	0.63307812
635.184	0.63348582
635.381	0.63388826
635.578	0.63420352
635.775	0.63437158
635.972	0.63469026
636.169	0.63495264
636.366	0.63518621
636.563	0.63547381
636.76	0.63568638
636.957	0.63602088
637.153	0.63618255
637.35	0.63655922
637.547	0.63673159
637.744	0.63698417
637.941	0.63722293
638.138	0.63742905
638.334	0.63757299
638.531	0.63802451
638.728	0.63822914
638.925	0.63868963
639.121	0.63902798
639.318	0.63927479
639.515	0.63956827
639.711	0.63996842
639.908	0.64005892
640.105	0.64030497
640.301	0.64040245
640.498	0.64061907
640.695	0.64096756
640.891	0.64131732
641.088	0.64153489
641.284	0.64190768
641.481	0.64217855
641.677	0.64239286
641.874	0.64262186
642.07	0.64287536
642.267	0.64334313
642.463	0.64362923
642.66	0.64416651
642.856	0.64447429
643.053	0.64476511
643.249	0.64521406
643.445	0.64549784
643.642	0.64563332
643.838	0.64602386
644.034	0.64619035
644.231	0.64651834
644.427	0.64695521
644.623	0.64725855
644.82	0.6476339
645.016	0.64790181
645.212	0.64804853
645.408	0.64828362
645.604	0.64880196
645.801	0.64909897
645.997	0.64935645
646.193	0.64955792
646.389	0.65002507
646.585	0.65047921
646.781	0.65081544
646.977	0.65103945
647.173	0.65127246
647.37	0.65151914
647.566	0.65181739
647.762	0.65188582
647.958	0.65219958
648.154	0.65241298
648.35	0.6526082
648.546	0.65290926
648.742	0.65335772
648.937	0.653555
649.133	0.65401984
649.329	0.65423712
649.525	0.65457003
649.721	0.6548111
649.917	0.65523149
650.113	0.65540659
650.309	0.65593531
650.504	0.65611803
650.7	0.65642285
650.896	0.65679622
651.092	0.65710314
651.287	0.65720857
651.483	0.65751566
651.679	0.65767211
651.875	0.65804983
652.07	0.65827281
652.266	0.65856637
652.462	0.65889163
652.657	0.65920801
652.853	0.65945168
653.048	0.65976123
653.244	0.65988913
653.44	0.66015502
653.635	0.66020171
653.831	0.66041059
654.026	0.6607395
654.222	0.66095826
654.417	0.66127654
654.613	0.66156426
654.808	0.66172175
655.004	0.66219684
655.199	0.66244353
655.394	0.66258275
655.59	0.66290773
655.785	0.66295328
655.98	0.66327962
656.176	0.66348192
656.371	0.66378646
656.566	0.66407619
656.762	0.66440035
656.957	0.66463095
657.152	0.66493947
657.348	0.66512932
657.543	0.66549795
657.738	0.66565943
657.933	0.66578404
658.128	0.66592275
658.324	0.66603581
658.519	0.66640409
658.714	0.66671278
658.909	0.66692465
659.104	0.66722935
659.299	0.66754244
659.494	0.66779355
659.689	0.66816297
659.884	0.66812459
660.079	0.66820357
660.274	0.66840949
660.469	0.66857817
660.664	0.66891164
660.859	0.66920667
661.054	0.66940929
661.249	0.66974705
661.444	0.66998644
661.639	0.67012021
661.834	0.6701596
662.029	0.67032115
662.224	0.6703373
662.418	0.67048423
662.613	0.67073486
662.808	0.67090613
663.003	0.67123147
663.198	0.67149423
663.392	0.67145693
663.587	0.67186136
663.782	0.67192108
663.977	0.67198832
664.171	0.67218227
664.366	0.6724015
664.561	0.67251133
664.755	0.67282848
664.95	0.67285447
665.144	0.67314728
665.339	0.67345395
665.534	0.67365441
665.728	0.67373859
665.923	0.67394937
666.117	0.67403481
666.312	0.67425284
666.506	0.67446043
666.701	0.67447482
666.895	0.67454797
667.09	0.674688
667.284	0.67492018
667.479	0.67513129
667.673	0.67529392
667.867	0.67540549
668.062	0.67557539
668.256	0.67581254
668.45	0.67602585
668.645	0.67609178
668.839	0.67627184
669.033	0.67636245
669.228	0.67639196
669.422	0.67662352
669.616	0.67666706
669.81	0.67684661
670.004	0.67686496
670.199	0.67703404
670.393	0.67711393
670.587	0.67730997
670.781	0.67750866
670.975	0.67776145
671.169	0.67768262
671.363	0.67790517
671.558	0.67790838
671.752	0.67804659
671.946	0.6782748
672.14	0.6783176
672.334	0.67825905
672.528	0.67857354
672.722	0.67856749
672.916	0.67875803
673.11	0.67881353
673.304	0.67902208
673.497	0.67896992
673.691	0.67921374
673.885	0.67913364
674.079	0.67931624
674.273	0.67923043
674.467	0.67938546
674.661	0.6792213
674.854	0.67931618
675.048	0.6792604
675.242	0.67946505
675.436	0.67948838
675.629	0.67961973
675.823	0.67961327
676.017	0.67973356
676.211	0.67971807
676.404	0.67975893
676.598	0.67969468
676.792	0.67976835
676.985	0.67985259
677.179	0.67994139
677.372	0.67992029
677.566	0.68022571
677.76	0.68041267
677.953	0.68052633
678.147	0.68070661
678.34	0.68075403
678.534	0.68078383
678.727	0.68087939
678.921	0.68083355
679.114	0.68068364
679.307	0.68069648
679.501	0.68067138
679.694	0.68067568
679.888	0.68074839
680.081	0.68083573
680.274	0.68077667
680.468	0.68095356
680.661	0.68097642
680.854	0.68101125
681.048	0.68114416
681.241	0.68112617
681.434	0.68118784
681.627	0.68126964
681.821	0.68129965
682.014	0.68144282
682.207	0.6814517
682.4	0.68145278
682.593	0.6815407
682.786	0.68143738
682.98	0.68148187
683.173	0.68151855
683.366	0.68141802
683.559	0.68139397
683.752	0.68135128
683.945	0.68124451
684.138	0.68133844
684.331	0.68128892
684.524	0.68134704
684.717	0.68125184
684.91	0.68134973
685.103	0.68134021
685.296	0.68138901
685.489	0.68131469
685.682	0.68120371
685.874	0.68140485
686.067	0.68154013
686.26	0.6814157
686.453	0.68138148
686.646	0.68134962
686.839	0.68147122
687.031	0.68152871
687.224	0.68110348
687.417	0.68106844
687.61	0.68097563
687.802	0.68082915
687.995	0.68083566
688.188	0.68068201
688.38	0.68060785
688.573	0.68065776
688.766	0.68062018
688.958	0.68063676
689.151	0.68071119
689.343	0.68072303
689.536	0.68072799
689.729	0.68067811
689.921	0.6807761
690.114	0.68056204
690.306	0.68055338
690.499	0.68052969
690.691	0.68051698
690.884	0.68047542
691.076	0.68056059
691.268	0.68037323
691.461	0.6803333
691.653	0.68032734
691.846	0.68031952
692.038	0.68016704
692.23	0.67982301
692.423	0.67962064
692.615	0.67947808
692.807	0.67944489
692.999	0.67930926
693.192	0.67913989
693.384	0.6791618
693.576	0.67924671
693.768	0.67930083
693.961	0.67926099
694.153	0.67922446
694.345	0.67904914
694.537	0.67893048
694.729	0.67880784
694.921	0.67870905
695.113	0.67871676
695.305	0.67869849
695.498	0.67868334
695.69	0.67879803
695.882	0.67882177
696.074	0.67874905
696.266	0.67863951
696.458	0.67830474
696.65	0.67823366
696.842	0.67802074
697.033	0.67784914
697.225	0.67763481
697.417	0.67757638
697.609	0.67757285
697.801	0.67759431
697.993	0.67764173
698.185	0.67768394
698.376	0.67772669
698.568	0.67771864
698.76	0.67768914
698.952	0.67758727
699.144	0.67752448
699.335	0.67730116
699.527	0.67713253
699.719	0.67688601
699.91	0.67689408
700.102	0.67676481
700.294	0.67675544
700.485	0.6766351
700.677	0.67649693
700.869	0.67651202
701.06	0.67658082
701.252	0.67640363
701.443	0.67624796
701.635	0.67613775
701.826	0.67612125
702.018	0.67614416
702.209	0.67606877
702.401	0.67598961
702.592	0.67607611
702.784	0.67608082
702.975	0.67604571
703.166	0.67588257
703.358	0.67565308
703.549	0.67552167
703.741	0.67529047
703.932	0.6749599
704.123	0.67477232
704.315	0.67459986
704.506	0.67468034
704.697	0.67469306
704.888	0.67476663
705.08	0.6748509
705.271	0.6749614
705.462	0.67488332
705.653	0.67480185
705.844	0.6745609
706.035	0.67434747
706.227	0.67402869
706.418	0.67368231
706.609	0.67355021
706.8	0.67355667
706.991	0.67350599
707.182	0.67355478
707.373	0.67362633
707.564	0.67382732
707.755	0.67391621
707.946	0.6737353
708.137	0.67348625
708.328	0.67332202
708.519	0.67315514
708.71	0.67298697
708.901	0.67268539
709.092	0.67261008
709.283	0.67257864
709.473	0.67265817
709.664	0.67274144
709.855	0.67272872
710.046	0.67278511
710.237	0.67278902
710.427	0.67259781
710.618	0.67256938
710.809	0.67235119
711	0.67224776
711.19	0.67200144
711.381	0.67196466
711.572	0.67178171
711.762	0.67189819
711.953	0.67178674
712.144	0.67180038
712.334	0.67165486
712.525	0.67189638
712.715	0.67178313
712.906	0.67179848
713.097	0.67155847
713.287	0.67152241
713.478	0.67142149
713.668	0.67143218
713.859	0.67114585
714.049	0.67104457
714.239	0.67114129
714.43	0.67123619
714.62	0.67122769
714.811	0.67129298
715.001	0.67121632
715.191	0.67113346
715.382	0.67100479
715.572	0.67083702
715.762	0.67064148
715.953	0.67056355
716.143	0.6704761
716.333	0.67036129
716.523	0.67042488
716.714	0.67055924
716.904	0.67047366
717.094	0.67057813
717.284	0.67046308
717.474	0.67038238
717.664	0.67041123
717.855	0.6702912
718.045	0.67000293
718.235	0.66991492
718.425	0.66990154
718.615	0.66990526
718.805	0.66993109
718.995	0.66994233
719.185	0.67009893
719.375	0.67025247
719.565	0.67040665
719.755	0.67016239
719.945	0.67017358
720.135	0.67013909
720.325	0.6701997
720.515	0.67004497
720.704	0.67004274
720.894	0.66994294
721.084	0.67001085
721.274	0.66992258
721.464	0.66997051
721.654	0.66981524
721.843	0.6698023
722.033	0.66979067
722.223	0.66967556
722.413	0.66988682
722.602	0.66999406
722.792	0.6698621
722.982	0.66990391
723.171	0.66991014
723.361	0.66976719
723.55	0.66996708
723.74	0.66978065
723.93	0.66977623
724.119	0.66999373
724.309	0.67000776
724.498	0.67007827
724.688	0.67018608
724.877	0.67011902
725.067	0.67009433
725.256	0.6700308
725.446	0.66980592
725.635	0.6696229
725.825	0.66942015
726.014	0.66933053
726.203	0.66922463
726.393	0.66909092
726.582	0.66889052
726.771	0.66890886
726.961	0.6690707
727.15	0.66904841
727.339	0.66906252
727.529	0.6691621
727.718	0.66917911
727.907	0.66910058
728.096	0.66896218
728.286	0.66879165
728.475	0.6688264
728.664	0.66873515
728.853	0.66849894
729.042	0.66839783
729.231	0.66856383
729.42	0.66864132
729.609	0.6687627
729.799	0.66872357
729.988	0.66881485
730.177	0.66873555
730.366	0.66885639
730.555	0.66873856
730.744	0.66861909
730.933	0.66847788
731.122	0.66836443
731.31	0.66824844
731.499	0.66833489
731.688	0.66847234
731.877	0.66852464
732.066	0.66869797
732.255	0.66868331
732.444	0.66877842
732.632	0.66877197
732.821	0.66880858
733.01	0.6686819
733.199	0.66847697
733.388	0.66828198
733.576	0.66821512
733.765	0.66816403
733.954	0.66813456
734.142	0.66799488
734.331	0.6679202
734.52	0.66807813
734.708	0.66805378
734.897	0.66815424
735.086	0.6681394
735.274	0.6680983
735.463	0.66806275
735.651	0.66797985
735.84	0.6680174
736.028	0.6681067
736.217	0.66821592
736.405	0.66820433
736.594	0.66832111
736.782	0.66853004
736.971	0.66860722
737.159	0.66864142
737.347	0.66869982
737.536	0.66854387
737.724	0.66861685
737.912	0.66852795
738.101	0.66833303
738.289	0.66840152
738.477	0.66837847
738.666	0.66836066
738.854	0.66842074
739.042	0.66847899
739.23	0.66850092
739.418	0.66866366
739.607	0.66858634
739.795	0.66855274
739.983	0.66867736
740.171	0.66875819
740.359	0.66879684
740.547	0.66875717
740.735	0.66872557
740.923	0.6688909
741.112	0.66896137
741.3	0.66890675
741.488	0.66880801
741.676	0.66897736
741.864	0.66911192
742.052	0.66934936
742.239	0.66930631
742.427	0.66949466
742.615	0.66954277
742.803	0.66967662
742.991	0.66950672
743.179	0.66945939
743.367	0.66931746
743.555	0.66942913
743.742	0.66929024
743.93	0.66937871
744.118	0.66942884
744.306	0.6694909
744.494	0.66959935
744.681	0.66969108
744.869	0.66972678
745.057	0.66991592
745.244	0.66996533
745.432	0.67007123
745.62	0.67009541
745.807	0.67025284
745.995	0.67022696
746.182	0.67009062
746.37	0.67004626
746.558	0.66997484
746.745	0.66975591
746.933	0.66980608
747.12	0.6697711
747.308	0.67004898
747.495	0.67021874
747.683	0.67031959
747.87	0.67040305
748.057	0.67075647
748.245	0.67099653
748.432	0.67107367
748.62	0.67094769
748.807	0.6709891
748.994	0.67094843
749.182	0.67104931
749.369	0.67097916
749.556	0.67100163
749.743	0.67108468
749.931	0.67115069
750.118	0.67136954
750.305	0.67158217
750.492	0.67153145
750.68	0.67167859
750.867	0.67165179
751.054	0.67177735
751.241	0.67182425
751.428	0.67175003
751.615	0.67170425
751.802	0.67189595
751.989	0.67178444
752.176	0.67192585
752.363	0.67199739
752.55	0.67204608
752.737	0.67227833
752.924	0.67232029
753.111	0.67245546
753.298	0.67270618
753.485	0.6727473
753.672	0.67266504
753.859	0.67289301
754.046	0.67286514
754.233	0.6728704
754.42	0.67290587
754.606	0.67289379
754.793	0.67284677
754.98	0.67314962
755.167	0.67308193
755.353	0.67330778
755.54	0.67363487
755.727	0.67378492
755.914	0.67398021
756.1	0.67419406
756.287	0.67407991
756.474	0.67412366
756.66	0.67407127
756.847	0.67411875
757.033	0.67396365
757.22	0.67380117
757.407	0.67410092
757.593	0.67430089
757.78	0.67439054
757.966	0.67464773
758.153	0.67467722
758.339	0.6749061
758.526	0.67513962
758.712	0.6749129
758.898	0.67504582
759.085	0.67497465
759.271	0.67474351
759.458	0.67470287
759.644	0.67473081
759.83	0.67475905
760.017	0.67491883
760.203	0.67494827
760.389	0.67521839
760.576	0.67550847
760.762	0.6757463
760.948	0.67577634
761.134	0.67595795
761.32	0.67609142
761.507	0.67608
761.693	0.67634489
761.879	0.67637906
762.065	0.67643343
762.251	0.67665486
762.437	0.67683963
762.623	0.67681651
762.809	0.67686031
762.995	0.67692784
763.181	0.67695759
763.367	0.67714834
763.553	0.67726417
763.739	0.67742882
763.925	0.67762365
764.111	0.67795267
764.297	0.67814834
764.483	0.67824576
764.669	0.67810777
764.855	0.67794633
765.041	0.67778262
765.227	0.67765674
765.412	0.67763798
765.598	0.67744373
765.784	0.67752657
765.97	0.67782358
766.156	0.67824581
766.341	0.67851446
766.527	0.67866117
766.713	0.67870836
766.898	0.6789881
767.084	0.67916538
767.27	0.6790511
767.455	0.67886688
767.641	0.67887237
767.827	0.67895067
768.012	0.67899809
768.198	0.67900751
768.383	0.67896949
768.569	0.67921508
768.754	0.6795232
768.94	0.67952681
769.125	0.67969813
769.311	0.67985818
769.496	0.67982119
769.682	0.67995618
769.867	0.68015366
770.052	0.68011031
770.238	0.68013417
770.423	0.6802565
770.608	0.68032282
770.794	0.68038403
770.979	0.6803325
771.164	0.68032974
771.35	0.68035971
771.535	0.68058358
771.72	0.68067813
771.905	0.68094213
772.09	0.6811293
772.276	0.68158993
772.461	0.68158916
772.646	0.68171884
772.831	0.68186855
773.016	0.68192526
773.201	0.68176178
773.386	0.68192534
773.571	0.68155994
773.756	0.6814327
773.941	0.68124181
774.126	0.68141295
774.311	0.68131771
774.496	0.68146527
774.681	0.68149504
774.866	0.68184734
775.051	0.68213745
775.236	0.68245837
775.421	0.68228853
775.606	0.68227343
775.791	0.68215536
775.976	0.68209659
776.16	0.68207857
776.345	0.6820549
776.53	0.68225166
776.715	0.68230862
776.899	0.6824432
777.084	0.68272148
777.269	0.68295039
777.454	0.68296216
777.638	0.68316433
777.823	0.68311889
778.008	0.6832124
778.192	0.68353024
778.377	0.68358404
778.561	0.68362249
778.746	0.6837134
778.931	0.68366785
779.115	0.68379071
779.3	0.68375959
779.484	0.6835899
779.669	0.6834422
779.853	0.68331844
780.037	0.68340963
780.222	0.68342884
780.406	0.68338629
780.591	0.68362746
780.775	0.68379165
780.959	0.68396546
781.144	0.6840628
781.328	0.68400463
781.512	0.68392602
781.697	0.68381848
781.881	0.68362043
782.065	0.68357219
782.249	0.6833666
782.434	0.68344843
782.618	0.68343875
782.802	0.68369011
782.986	0.68391324
783.17	0.68413013
783.354	0.68429954
783.539	0.68451339
783.723	0.68434807
783.907	0.68450478
784.091	0.6845327
784.275	0.6846277
784.459	0.68463731
784.643	0.68478181
784.827	0.6847853
785.011	0.68493065
785.195	0.68492003
785.379	0.68496517
785.563	0.68484435
785.747	0.68480517
785.93	0.68501428
786.114	0.68508898
786.298	0.6851465
786.482	0.68514789
786.666	0.68525307
786.85	0.68538454
787.033	0.68557538
787.217	0.68540089
787.401	0.68537689
787.585	0.68536955
787.768	0.68539016
787.952	0.68506727
788.136	0.6848587
788.319	0.6846962
788.503	0.68425668
788.687	0.6842573
788.87	0.6842981
789.054	0.68431323
789.237	0.6844842
789.421	0.68470551
789.605	0.68464218
789.788	0.68489348
789.972	0.68492761
790.155	0.68470705
790.338	0.68454092
790.522	0.6843849
790.705	0.68402615
790.889	0.68387254
791.072	0.68381831
791.256	0.68380024
791.439	0.68389952
791.622	0.68410002
791.806	0.68451785
791.989	0.68471603
792.172	0.68497903
792.355	0.68515399
792.539	0.68530857
792.722	0.68540057
792.905	0.68527265
793.088	0.6849289
793.271	0.6850649
793.455	0.68498085
793.638	0.68487598
793.821	0.68461705
794.004	0.68458461
794.187	0.68480865
794.37	0.68497329
794.553	0.68501365
794.736	0.68501734
794.919	0.68492959
795.102	0.68513238
795.285	0.68524324
795.468	0.68510653
795.651	0.68506865
795.834	0.6851325
796.017	0.68539606
796.2	0.68540151
796.383	0.68515825
796.566	0.68509094
796.749	0.68501099
796.931	0.68493583
797.114	0.68455492
797.297	0.68416453
797.48	0.68408464
797.663	0.68421519
797.845	0.68425402
798.028	0.68439125
798.211	0.68440785
798.393	0.68448751
798.576	0.68462973
798.759	0.68454138
798.941	0.6844045
799.124	0.68417336
799.307	0.68403153
799.489	0.6838875
799.672	0.68373679
799.854	0.68336954
800.037	0.68327229
800.219	0.68327236
800.402	0.68331751
800.584	0.68307596
800.767	0.68301881
800.949	0.68305861
801.132	0.68349602
801.314	0.68362125
801.496	0.68375554
801.679	0.68372495
801.861	0.68393986
802.043	0.68385246
802.226	0.68381857
802.408	0.6834241
802.59	0.68336178
802.772	0.68314582
802.955	0.6829958
803.137	0.68268129
803.319	0.68260319
803.501	0.68241135
803.684	0.68237519
803.866	0.68210856
804.048	0.6821414
804.23	0.68223863
804.412	0.68238301
804.594	0.68232365
804.776	0.68269
804.958	0.68248339
805.14	0.68262339
805.322	0.68236744
805.504	0.68231151
805.686	0.68209803
805.868	0.68208278
806.05	0.6816656
806.232	0.68188653
806.414	0.68188638
806.596	0.68189804
806.778	0.68173824
806.96	0.68194473
807.141	0.68172413
807.323	0.68172955
807.505	0.68150878
807.687	0.68139801
807.869	0.68138166
808.05	0.6813083
808.232	0.68099514
808.414	0.68108463
808.595	0.68088288
808.777	0.68064523
808.959	0.6805427
809.14	0.68039105
809.322	0.68024859
809.504	0.68003302
809.685	0.67998703
809.867	0.67981559
810.048	0.67980436
810.23	0.67971401
810.411	0.67970223
810.593	0.67958606
810.774	0.67969716
810.956	0.67962158
811.137	0.67971567
811.319	0.67980737
811.5	0.67969709
811.681	0.6794879
811.863	0.67927323
812.044	0.67897666
812.225	0.67882732
812.407	0.67859936
812.588	0.67811208
812.769	0.67781994
812.951	0.67754018
813.132	0.67751785
813.313	0.67776504
813.494	0.67762005
813.675	0.67766259
813.857	0.67797083
814.038	0.6782211
814.219	0.67822756
814.4	0.678058
814.581	0.67786411
814.762	0.67767064
814.943	0.67749789
815.124	0.6770945
815.305	0.67669722
815.486	0.67653329
815.667	0.67645518
815.848	0.67608445
816.029	0.67590615
816.21	0.67580413
816.391	0.67598152
816.572	0.67587886
816.753	0.67607615
816.934	0.67602547
817.115	0.67615434
817.295	0.67633406
817.476	0.67592875
817.657	0.67566459
817.838	0.67576921
818.019	0.67528193
818.199	0.67491761
818.38	0.6745061
818.561	0.67400639
818.741	0.67391129
818.922	0.67357748
819.103	0.67329064
819.283	0.67334057
819.464	0.67335304
819.645	0.67325011
819.825	0.67338275
820.006	0.67342716
820.186	0.67346356
820.367	0.67336875
820.547	0.6729583
820.728	0.67265177
820.908	0.67239195
821.089	0.67232792
821.269	0.67206367
821.45	0.67182066
821.63	0.67130213
821.81	0.67124511
821.991	0.67124249
822.171	0.67116988
822.351	0.67074601
822.532	0.67063294
822.712	0.67047891
822.892	0.67047322
823.072	0.6704337
823.253	0.67046438
823.433	0.67028608
823.613	0.67012466
823.793	0.66987117
823.973	0.66974564
824.154	0.66957567
824.334	0.66932507
824.514	0.66886086
824.694	0.66863975
824.874	0.66818005
825.054	0.66805469
825.234	0.66767632
825.414	0.66728219
825.594	0.66703995
825.774	0.66690391
825.954	0.66684259
826.134	0.6668304
826.314	0.66655515
826.494	0.66672008
826.674	0.66657525
826.854	0.66637917
827.033	0.66603102
827.213	0.66602164
827.393	0.66579021
827.573	0.6659376
827.753	0.66547099
827.932	0.66547782
828.112	0.66534817
828.292	0.66536428
828.472	0.66482972
828.651	0.66486133
828.831	0.6643014
829.011	0.66422678
829.19	0.66389688
829.37	0.66369796
829.549	0.66340182
829.729	0.66332511
829.909	0.66300416
830.088	0.6628555
830.268	0.66228522
830.447	0.66230248
830.627	0.66217554
830.806	0.6620158
830.986	0.66146097
831.165	0.66127779
831.344	0.66100728
831.524	0.6609426
831.703	0.66046045
831.883	0.65987464
832.062	0.65954212
832.241	0.65943495
832.421	0.65912442
832.6	0.65901713
832.779	0.65900227
832.958	0.65891119
833.138	0.6587525
833.317	0.65875508
833.496	0.6586834
833.675	0.65854495
833.854	0.65859531
834.034	0.65823779
834.213	0.65789758
834.392	0.65784305
834.571	0.65733069
834.75	0.65705813
834.929	0.65672206
835.108	0.65607148
835.287	0.65603941
835.466	0.65566753
835.645	0.65547841
835.824	0.65522085
836.003	0.65509475
836.182	0.65499499
836.361	0.65504659
836.54	0.65456438
836.719	0.65448032
836.897	0.65411232
837.076	0.65389465
837.255	0.65351451
837.434	0.65316077
837.613	0.6526533
837.791	0.65233934
837.97	0.65196207
838.149	0.6514946
838.328	0.65112414
838.506	0.65068872
838.685	0.65023228
838.864	0.6501788
839.042	0.6498668
839.221	0.64987173
839.4	0.65005205
839.578	0.65012272
839.757	0.64990687
839.935	0.64989288
840.114	0.64963094
840.292	0.64950949
840.471	0.64944478
840.649	0.64893951
840.828	0.64843606
841.006	0.64835188
841.185	0.64779422
841.363	0.64735028
841.541	0.64692104
841.72	0.64659478
841.898	0.64646874
842.076	0.64621617
842.255	0.64597724
842.433	0.6460477
842.611	0.64581425
842.789	0.64577065
842.968	0.64558365
843.146	0.64523769
843.324	0.64520668
843.502	0.64491628
843.68	0.64490025
843.859	0.64468522
844.037	0.64432512
844.215	0.643858
844.393	0.64353174
844.571	0.6431176
844.749	0.64285723
844.927	0.64221513
845.105	0.64182336
845.283	0.64140988
845.461	0.64100129
845.639	0.64082415
845.817	0.64054356
845.995	0.64056834
846.173	0.6406444
846.351	0.64039973
846.529	0.64024926
846.706	0.64016495
846.884	0.6400998
847.062	0.6396925
847.24	0.63909104
847.418	0.63829417
847.595	0.63796641
847.773	0.63764802
847.951	0.63698037
848.129	0.63634858
848.306	0.63623022
848.484	0.63587641
848.662	0.63579885
848.839	0.63578147
849.017	0.63570053
849.194	0.63568793
849.372	0.63550743
849.549	0.63502162
849.727	0.63497926
849.905	0.63460399
850.082	0.63407417
850.26	0.6336923
850.437	0.63326869
850.614	0.63291679
850.792	0.63281008
850.969	0.63256967
851.147	0.63249928
851.324	0.63240248
851.501	0.63200676
851.679	0.63162031
851.856	0.63130691
852.033	0.63118389
852.211	0.6305878
852.388	0.63011295
852.565	0.62991319
852.742	0.62991863
852.92	0.62988791
853.097	0.62983962
853.274	0.62943803
853.451	0.62925162
853.628	0.62896899
853.805	0.62845876
853.982	0.62777679
854.159	0.62726774
854.336	0.6268696
854.514	0.62632387
854.691	0.62579098
854.868	0.62553898
855.045	0.62519635
855.221	0.62500772
855.398	0.6245381
855.575	0.62403089
855.752	0.62392874
855.929	0.62427403
856.106	0.62378196
856.283	0.62359067
856.46	0.62361493
856.637	0.62386761
856.813	0.62379153
856.99	0.62345924
857.167	0.62299026
857.344	0.62281536
857.52	0.62257412
857.697	0.62168355
857.874	0.6209962
858.05	0.62036046
858.227	0.61976738
858.404	0.61913744
858.58	0.61893809
858.757	0.61844364
858.933	0.61837958
859.11	0.61820292
859.287	0.61779909
859.463	0.61783441
859.64	0.6178933
859.816	0.61758349
859.993	0.61748559
860.169	0.6175414
860.345	0.61740177
860.522	0.61764762
860.698	0.61736791
860.875	0.61687279
861.051	0.61672093
861.227	0.61590507
861.404	0.61530765
861.58	0.61480998
861.756	0.61421674
861.932	0.61389458
862.109	0.61319421
862.285	0.61267842
862.461	0.61291371
862.637	0.6127383
862.813	0.61237838
862.99	0.61219226
863.166	0.61176345
863.342	0.61224451
863.518	0.61185523
863.694	0.61166799
863.87	0.61119404
864.046	0.61100794
864.222	0.61064505
864.398	0.61066015
864.574	0.60959888
864.75	0.60931698
864.926	0.60869268
865.102	0.60841031
865.278	0.60787996
865.454	0.60752448
865.63	0.60682533
865.805	0.60668772
865.981	0.60648032
866.157	0.60627314
866.333	0.60568572
866.509	0.60564325
866.684	0.60536056
866.86	0.60551721
867.036	0.60532633
867.212	0.60488563
867.387	0.60464186
867.563	0.60478894
867.739	0.60450645
867.914	0.60437049
868.09	0.60370072
868.265	0.60318877
868.441	0.60282559
868.617	0.60244567
868.792	0.60194462
868.968	0.60121918
869.143	0.60092536
869.319	0.60071149
869.494	0.60024984
869.67	0.60014785
869.845	0.59979089
870.02	0.59968161
870.196	0.59966427
870.371	0.59933967
870.546	0.59902885
870.722	0.59934583
870.897	0.59892138
871.072	0.59867807
871.248	0.59808089
871.423	0.59768868
871.598	0.59726223
871.773	0.59645472
871.949	0.59562339
872.124	0.59538144
872.299	0.59479107
872.474	0.59442026
872.649	0.59398169
872.824	0.59332432
872.999	0.59326763
873.174	0.59331652
873.349	0.59301732
873.524	0.59295054
873.699	0.59299891
873.874	0.59283142
874.049	0.59270966
874.224	0.59248435
874.399	0.59178594
874.574	0.59159335
874.749	0.59124719
874.924	0.59054093
875.099	0.58994563
875.274	0.58969926
875.449	0.5894
875.623	0.58898046
875.798	0.58820649
875.973	0.58771233
876.148	0.58711529
876.322	0.58691315
876.497	0.58633234
876.672	0.58598179
876.846	0.58588967
877.021	0.58561003
877.196	0.58472277
877.37	0.58476497
877.545	0.58497935
877.72	0.5848288
877.894	0.58451235
878.069	0.58405196
878.243	0.58353204
878.418	0.58383185
878.592	0.58324601
878.767	0.58239088
878.941	0.58205352
879.116	0.58152177
879.29	0.58075397
879.464	0.58027669
879.639	0.57934169
879.813	0.57929145
879.987	0.57860105
880.162	0.57794295
880.336	0.57741133
880.51	0.57761841
880.685	0.57767737
880.859	0.5778995
881.033	0.57748952
881.207	0.57733719
881.381	0.57748414
881.556	0.57723457
881.73	0.57646549
881.904	0.57647535
882.078	0.57607493
882.252	0.5756856
882.426	0.5753733
882.6	0.5747691
882.774	0.57462024
882.948	0.57426325
883.122	0.57311564
883.296	0.57248778
883.47	0.57216642
883.644	0.57219508
883.818	0.57156029
883.992	0.5711474
884.166	0.57125359
884.34	0.57165155
884.514	0.5718667
884.687	0.57178057
884.861	0.57111151
885.035	0.57122049
885.209	0.57102653
885.382	0.57077412
885.556	0.57013445
885.73	0.56958434
885.904	0.5691957
886.077	0.56864489
886.251	0.56821088
886.425	0.56785168
886.598	0.56739283
886.772	0.56679824
886.945	0.56591854
887.119	0.56496795
887.292	0.5647126
887.466	0.56460515
887.64	0.56411024
887.813	0.56363507
887.986	0.56340051
888.16	0.56364337
888.333	0.56351825
888.507	0.56329938
888.68	0.56248691
888.854	0.56222707
889.027	0.56193427
889.2	0.56198172
889.374	0.56135699
889.547	0.56143539
889.72	0.56121267
889.893	0.56094757
890.067	0.56035404
890.24	0.55977174
890.413	0.5592183
890.586	0.5584656
890.759	0.55794012
890.933	0.55746007
891.106	0.55700894
891.279	0.55675083
891.452	0.5566317
891.625	0.55606054
891.798	0.55623237
891.971	0.55590065
892.144	0.55565444
892.317	0.55599057
892.49	0.55549577
892.663	0.55536603
892.836	0.55570131
893.009	0.55559105
893.182	0.55509746
893.355	0.55498582
893.527	0.55431958
893.7	0.55488927
893.873	0.55440033
894.046	0.55337539
894.219	0.5531903
894.391	0.55302282
894.564	0.55274116
894.737	0.55234608
894.91	0.55138613
895.082	0.55103001
895.255	0.55097004
895.428	0.55045194
895.6	0.5499617
895.773	0.54930046
895.945	0.54890815
896.118	0.54887862
896.291	0.54892866
896.463	0.54893206
896.636	0.54863904
896.808	0.54860663
896.981	0.54853341
897.153	0.54827273
897.326	0.54783695
897.498	0.54710274
897.67	0.54638626
897.843	0.54600089
898.015	0.54581061
898.187	0.54544747
898.36	0.54474335
898.532	0.54397434
898.704	0.54401176
898.877	0.54370531
899.049	0.54337402
899.221	0.54298775
899.393	0.54266876
899.566	0.54280066
899.738	0.54321224
899.91	0.54294211
900.082	0.54275096
900.254	0.54257935
900.426	0.54238736
900.598	0.54224526
900.77	0.54184101
900.942	0.54136189
901.114	0.54067403
901.286	0.54021597
901.458	0.53965289
901.63	0.53896953
901.802	0.53843834
901.974	0.53813026
902.146	0.53755711
902.318	0.53730858
902.49	0.53689583
902.662	0.53628317
902.834	0.53592994
903.005	0.53594843
903.177	0.53575139
903.349	0.53590874
903.521	0.5354856
903.693	0.53549252
903.864	0.53560302
904.036	0.53550032
904.208	0.53453192
904.379	0.53406369
904.551	0.53383278
904.723	0.53369874
904.894	0.53301213
905.066	0.53263714
905.237	0.53240525
905.409	0.53227361
905.58	0.53206968
905.752	0.5311
905.923	0.53058202
906.095	0.53010945
906.266	0.52989192
906.438	0.52964823
906.609	0.52944962
906.78	0.5290212
906.952	0.52908561
907.123	0.52871307
907.295	0.52910971
907.466	0.52876024
907.637	0.52862118
907.808	0.5284109
907.98	0.52818741
908.151	0.52758408
908.322	0.52778317
908.493	0.52690743
908.665	0.52667151
908.836	0.52578476
909.007	0.52549227
909.178	0.52493485
909.349	0.52463992
909.52	0.52444158
909.691	0.52399939
909.862	0.52355732
910.033	0.52319724
910.204	0.5229832
910.375	0.52295697
910.546	0.52276222
910.717	0.52193445
910.888	0.5222073
911.059	0.52213064
911.23	0.52213142
911.401	0.52150906
911.572	0.52102306
911.742	0.52058246
911.913	0.52037731
912.084	0.51963946
912.255	0.51931728
912.426	0.51888322
912.596	0.51851768
912.767	0.51849383
912.938	0.51846464
913.108	0.51834442
913.279	0.51815841
913.45	0.51761989
913.62	0.51729918
913.791	0.51752495
913.962	0.51724404
914.132	0.51663481
914.303	0.51618252
914.473	0.51595129
914.644	0.51554507
914.814	0.51502509
914.985	0.51445364
915.155	0.51403127
915.326	0.51372979
915.496	0.51332466
915.666	0.51284626
915.837	0.51313754
916.007	0.51264046
916.177	0.51175384
916.348	0.5115426
916.518	0.51167605
916.688	0.51161775
916.858	0.51158156
917.029	0.51055765
917.199	0.51088288
917.369	0.51134406
917.539	0.51126627
917.709	0.51065234
917.88	0.50989834
918.05	0.50930806
918.22	0.50944647
918.39	0.50880926
918.56	0.5084833
918.73	0.50806714
918.9	0.50777206
919.07	0.50758793
919.24	0.50762521
919.41	0.50751603
919.58	0.50697993
919.75	0.50674331
919.92	0.50587164
920.09	0.50585895
920.26	0.50563666
920.429	0.50532481
920.599	0.50476862
920.769	0.50462277
920.939	0.50365677
921.109	0.50337964
921.278	0.50265887
921.448	0.50235342
921.618	0.50222551
921.787	0.502243
921.957	0.50229955
922.127	0.50174109
922.296	0.50200925
922.466	0.50178731
922.636	0.50179886
922.805	0.50165384
922.975	0.50083732
923.144	0.50021943
923.314	0.50041312
923.483	0.49995451
923.653	0.49972625
923.822	0.49924607
923.992	0.49857375
924.161	0.49849893
924.331	0.49829102
924.5	0.49797256
924.669	0.49721902
924.839	0.49696695
925.008	0.49653637
925.177	0.49578573
925.347	0.49556916
925.516	0.49572469
925.685	0.49566399
925.854	0.49591913
926.023	0.49550589
926.193	0.49571348
926.362	0.49548056
926.531	0.49541008
926.7	0.49462232
926.869	0.49462052
927.038	0.49363552
927.207	0.49345408
927.376	0.49271447
927.545	0.49283993
927.715	0.49202949
927.884	0.49202002
928.052	0.49216467
928.221	0.49186543
928.39	0.49149974
928.559	0.49109883
928.728	0.49086194
928.897	0.49123132
929.066	0.49113789
929.235	0.48960115
929.404	0.4897732
929.572	0.48948507
929.741	0.48941929
929.91	0.48910799
930.079	0.48812267
930.247	0.48726599
930.416	0.48761897
930.585	0.48715602
930.753	0.48685302
930.922	0.48666739
931.091	0.48652053
931.259	0.48645316
931.428	0.48691359
931.596	0.48664394
931.765	0.48719237
931.934	0.48765435
932.102	0.4864272
932.27	0.48603937
932.439	0.48565478
932.607	0.48494185
932.776	0.48518295
932.944	0.48463269
933.113	0.48429198
933.281	0.48482089
933.449	0.48386839
933.618	0.48327825
933.786	0.48331256
933.954	0.48205505
934.123	0.48137575
934.291	0.48085276
934.459	0.48045798
934.627	0.48072163
934.795	0.48121388
934.964	0.48124384
935.132	0.48103679
935.3	0.48023544
935.468	0.47955753
935.636	0.47984513
935.804	0.47921073
935.972	0.47818506
936.14	0.4771105
936.308	0.47692108
936.476	0.47797277
936.644	0.47839932
936.812	0.47832581
936.98	0.47875748
937.148	0.47818406
937.316	0.47704706
937.484	0.47831218
937.652	0.47599999
937.82	0.4765188
937.987	0.47541615
938.155	0.47475123
938.323	0.47517823
938.491	0.47416095
938.658	0.47424686
938.826	0.47425951
938.994	0.4722095
939.162	0.47226672
939.329	0.4738343
939.497	0.47547814
939.665	0.47692999
939.832	0.47750637
940	0.48033689
940.167	0.48106145
940.335	0.47981624
940.502	0.47825497
940.67	0.47797382
940.837	0.48103752
941.005	0.47866778
941.172	0.47704864
941.34	0.4770106
941.507	0.48335223
941.674	0.48702466
941.842	0.48577465
942.009	0.48792232
942.177	0.48447826
942.344	0.48846955
942.511	0.4900188
942.678	0.48739922
942.846	0.48324928
943.013	0.48344528
943.18	0.48016757
943.347	0.48550395
943.514	0.48216745
943.682	0.48373104
943.849	0.48007614
944.016	0.47642303
944.183	0.47661212
944.35	0.47701143
944.517	0.47780805
944.684	0.48036614
944.851	0.46920616
945.018	0.46882305
945.185	0.47113156
945.352	0.47026724
945.519	0.46927581
945.686	0.46547006
945.853	0.47050216
946.02	0.47427825
946.187	0.47352122
946.353	0.47667248
946.52	0.47635742
946.687	0.47366317
946.854	0.47477064
947.021	0.46790957
947.187	0.4686628
947.354	0.46625857
947.521	0.4644324
947.687	0.46222313
947.854	0.46335817
948.021	0.46114745
948.187	0.46012479
948.354	0.45990329
948.52	0.46254749
948.687	0.46471421
948.854	0.46853269
949.02	0.46541359
949.187	0.46663109
949.353	0.46727916
949.52	0.46420252
949.686	0.46375735
949.852	0.4634009
950.019	0.46325517
950.185	0.46635858
950.352	0.46522633
950.518	0.46093104
950.684	0.46480637
950.851	0.46372347
951.017	0.45790298
951.183	0.45732982
951.349	0.45611529
951.516	0.45217737
951.682	0.45459071
951.848	0.45258872
952.014	0.45203996
952.18	0.45508308
952.346	0.45251567
952.512	0.45129442
952.679	0.45598234
952.845	0.45529004
953.011	0.45502288
953.177	0.45545409
953.343	0.45252266
953.509	0.45466104
953.675	0.45469583
953.841	0.4522774
954.007	0.45337947
954.172	0.4554393
954.338	0.45338547
954.504	0.45298639
954.67	0.44844074
954.836	0.44884448
955.002	0.44933293
955.167	0.44926412
955.333	0.44435464
955.499	0.44516971
955.665	0.44452403
955.83	0.44701499
955.996	0.44595083
956.162	0.44461466
956.327	0.44181874
956.493	0.4420892
956.659	0.44315874
956.824	0.44344091
956.99	0.44213802
957.155	0.4423269
957.321	0.44307546
957.486	0.44417518
957.652	0.44512759
957.817	0.44529365
957.983	0.4451334
958.148	0.44554401
958.314	0.44487245
958.479	0.44217605
958.644	0.44176144
958.81	0.44214806
958.975	0.44089594
959.14	0.44047133
959.306	0.43930889
959.471	0.43792589
959.636	0.43730311
959.801	0.43893971
959.967	0.43776099
960.132	0.43756845
960.297	0.43793644
960.462	0.43957974
960.627	0.44020122
960.792	0.44060029
960.957	0.43836734
961.123	0.43969793
961.288	0.43910792
961.453	0.43922006
961.618	0.43811007
961.783	0.43909722
961.948	0.43803835
962.113	0.43668045
962.277	0.43436092
962.442	0.43402358
962.607	0.43442858
962.772	0.43346383
962.937	0.43184713
963.102	0.43300567
963.267	0.43414282
963.431	0.43492288
963.596	0.43408841
963.761	0.43168534
963.926	0.4307655
964.09	0.43104377
964.255	0.43112851
964.42	0.43090659
964.584	0.43203029
964.749	0.43098414
964.914	0.43100753
965.078	0.43045329
965.243	0.42905811
965.407	0.42796758
965.572	0.42700465
965.736	0.4264309
965.901	0.42821736
966.065	0.43052355
966.23	0.43115878
966.394	0.43266489
966.559	0.43291683
966.723	0.43322035
966.887	0.43160278
967.052	0.43017583
967.216	0.42694437
967.38	0.42402851
967.545	0.42309609
967.709	0.42376733
967.873	0.42476546
968.037	0.42489162
968.202	0.42477146
968.366	0.42651847
968.53	0.42979943
968.694	0.42918236
968.858	0.42736977
969.022	0.4249314
969.187	0.42357638
969.351	0.42384397
969.515	0.42282829
969.679	0.42051089
969.843	0.41925249
970.007	0.41881385
970.171	0.41985502
970.335	0.42098502
970.499	0.42081392
970.662	0.42075857
970.826	0.42160588
970.99	0.42341312
971.154	0.42485354
971.318	0.42381343
971.482	0.42140402
971.645	0.4215212
971.809	0.42264048
971.973	0.42291461
972.137	0.42171352
972.3	0.42060619
972.464	0.42085993
972.628	0.4243544
972.791	0.42563853
972.955	0.42468552
973.119	0.42437621
973.282	0.42424473
973.446	0.42413665
973.609	0.42392759
973.773	0.4219798
973.936	0.41946302
974.1	0.41850886
974.263	0.41799915
974.427	0.41780941
974.59	0.41724508
974.754	0.41698817
974.917	0.4167071
975.08	0.41697833
975.244	0.41628701
975.407	0.41661353
975.57	0.4155699
975.734	0.41492137
975.897	0.41509301
976.06	0.41468162
976.223	0.4140692
976.387	0.41559787
976.55	0.41386169
976.713	0.41386376
976.876	0.41470424
977.039	0.41246662
977.202	0.4120813
977.365	0.41041838
977.528	0.40983508
977.692	0.41149919
977.855	0.41020511
978.018	0.40882131
978.181	0.41057057
978.344	0.40949632
978.506	0.41029131
978.669	0.40874728
978.832	0.40656151
978.995	0.40727478
979.158	0.40886091
979.321	0.40715582
979.484	0.40701817
979.646	0.40677075
979.809	0.40826073
979.972	0.40793096
980.135	0.409024
980.297	0.40742137
980.46	0.4066195
980.623	0.40800703
980.786	0.40890954
980.948	0.40692688
981.111	0.40743293
981.273	0.40618376
981.436	0.40565971
981.599	0.40734627
981.761	0.40538584
981.924	0.40499704
982.086	0.40503161
982.249	0.40598733
982.411	0.40587071
982.573	0.40541637
982.736	0.4078708
982.898	0.40821279
983.061	0.40735934
983.223	0.40685581
983.385	0.4059233
983.548	0.40764702
983.71	0.40822563
983.872	0.40432646
984.034	0.40394237
984.197	0.4018054
984.359	0.40260662
984.521	0.40404248
984.683	0.40393591
984.845	0.40459779
985.008	0.40418298
985.17	0.40673497
985.332	0.40996415
985.494	0.40733199
985.656	0.4063856
985.818	0.40369225
985.98	0.40298888
986.142	0.40113835
986.304	0.39904306
986.466	0.39667436
986.628	0.39789242
986.79	0.3964136
986.952	0.39516599
987.113	0.39460475
987.275	0.39561042
987.437	0.3953798
987.599	0.39586571
987.761	0.39640052
987.922	0.39493086
988.084	0.39732186
988.246	0.39779332
988.408	0.39805112
988.569	0.39816108
988.731	0.39930116
988.893	0.40016203
989.054	0.40312711
989.216	0.40238884
989.377	0.3996777
989.539	0.39950533
989.701	0.39682722
989.862	0.39541568
990.024	0.39251109
990.185	0.39142788
990.347	0.3923928
990.508	0.39238151
990.669	0.39442831
990.831	0.39624763
990.992	0.39844407
991.154	0.39768758
991.315	0.40008027
991.476	0.39978669
991.638	0.40131846
991.799	0.39970765
991.96	0.39955791
992.121	0.39890983
992.283	0.40039391
992.444	0.39741382
992.605	0.39543038
992.766	0.39533911
992.927	0.3938455
993.088	0.39462415
993.249	0.39239743
993.41	0.39005245
993.572	0.38983399
993.733	0.3903099
993.894	0.38859025
994.055	0.38537368
994.216	0.38435229
994.376	0.38186585
994.537	0.38533486
994.698	0.38504613
994.859	0.3834844
995.02	0.38424262
995.181	0.38385487
995.342	0.3847706
995.503	0.38550421
995.663	0.38423394
995.824	0.38315647
995.985	0.38803637
996.146	0.38849882
996.306	0.39031478
996.467	0.3895762
996.628	0.39426225
996.788	0.39301101
996.949	0.39573618
997.11	0.39090963
997.27	0.38868856
997.431	0.3905942
997.591	0.38457642
997.752	0.37673108
997.912	0.37745944
998.073	0.37529332
998.233	0.3763603
998.394	0.37809651
998.554	0.38016329
998.714	0.38424484
998.875	0.38633616
999.035	0.38369022
999.196	0.38436245
999.356	0.38286943
999.516	0.38370792
999.676	0.38294889
999.837	0.38444772
999.997	0.38436535
1000.157	0.38651618
1000.317	0.38201023
1000.477	0.37985865
1000.638	0.37569986
1000.798	0.37632645
1000.958	0.37620541
1001.118	0.37677925
1001.278	0.37556632
1001.438	0.37823677
1001.598	0.37945587
1001.758	0.38284428
1001.918	0.37918195
1002.078	0.37403335
1002.238	0.37446347
1002.398	0.37618326
1002.558	0.37276373
1002.718	0.37328387
1002.878	0.37178661
1003.037	0.36570464
1003.197	0.3694795
1003.357	0.36630153
1003.517	0.36861866
1003.677	0.36636823
1003.836	0.36543229
1003.996	0.36487402
1004.156	0.36973581
1004.315	0.37179472
1004.475	0.37883542
1004.635	0.38018295
1004.794	0.38682292
1004.954	0.38622063
1005.114	0.38436418
1005.273	0.39064636
1005.433	0.38374942
1005.592	0.38206127
1005.752	0.37597466
1005.911	0.37266917
1006.071	0.37575124
1006.23	0.37392363
1006.389	0.36758736
1006.549	0.36995194
1006.708	0.36507021
1006.868	0.36299374
1007.027	0.36610001
1007.186	0.36699885
1007.345	0.37692525
1007.505	0.37777278
1007.664	0.38191552
1007.823	0.38299671
1007.982	0.38890574
1008.142	0.38851285
1008.301	0.38646363
1008.46	0.37656137
1008.619	0.37103024
1008.778	0.3680089
1008.937	0.3668426
1009.096	0.36424978
1009.255	0.36449443
1009.414	0.3566915
1009.573	0.36169192
1009.732	0.37384384
1009.891	0.37248427
1010.05	0.37812
1010.209	0.37293973
1010.368	0.37014549
1010.527	0.3765625
1010.686	0.37715859
1010.845	0.36396681
1011.003	0.36570648
1011.162	0.36245009
1011.321	0.35675097
1011.48	0.36186691
1011.638	0.36070276
1011.797	0.35989691
1011.956	0.36546083
1012.115	0.36308569
1012.273	0.35987781
1012.432	0.3662288
1012.59	0.35627817
1012.749	0.35333912
1012.908	0.34760627
1013.066	0.34881222
1013.225	0.34622553
1013.383	0.35189933
1013.542	0.35317843
1013.7	0.35906167
1013.859	0.3676724
1014.017	0.37536121
1014.175	0.36831363
1014.334	0.37851204
1014.492	0.3799877
1014.65	0.38138504
1014.809	0.38427688
1014.967	0.38010631
1015.125	0.37759407
1015.284	0.38963383
1015.442	0.38379224
1015.6	0.37771977
1015.758	0.37547205
1015.916	0.36967577
1016.075	0.36589476
1016.233	0.36068422
1016.391	0.36369423
1016.549	0.3655275
1016.707	0.3658137
1016.865	0.36621973
1017.023	0.35953571
1017.181	0.36230792
1017.339	0.36613081
1017.497	0.35783599
1017.655	0.35353619
1017.813	0.35293195
1017.971	0.35594602
1018.129	0.36531123
1018.286	0.36592508
1018.444	0.35526664
1018.602	0.35563138
1018.76	0.35544892
1018.918	0.35419081
1019.075	0.35369429
1019.233	0.34956707
1019.391	0.34984733
1019.549	0.36471781
1019.706	0.36857502
1019.864	0.37324295
1020.022	0.38204019
1020.179	0.38396779
1020.337	0.38558468
1020.494	0.37792411
1020.652	0.3694084
1020.809	0.36316881
1020.967	0.35226287
1021.124	0.34483392
1021.282	0.34962441
1021.439	0.35280484
1021.597	0.36527973
1021.754	0.36665832
1021.911	0.37373855
1022.069	0.37610038
1022.226	0.37984094
1022.384	0.36577678
1022.541	0.35532906
1022.698	0.34580636
1022.855	0.35349489
1023.013	0.35247942
1023.17	0.35227909
1023.327	0.35505029
1023.484	0.36285651
1023.641	0.37015189
1023.798	0.39150064
1023.956	0.39899799
1024.113	0.38613321
1024.27	0.39307816
1024.427	0.3920861
1024.584	0.39107374
1024.741	0.38922108
1024.898	0.36838238
1025.055	0.34891305
1025.212	0.3466016
1025.369	0.32922128
1025.525	0.32136659
1025.682	0.32802145
1025.839	0.32980254
1025.996	0.33175428
1026.153	0.34202604
1026.31	0.35865235
1026.466	0.38198282
1026.623	0.39337496
1026.78	0.38450249
1026.937	0.38813296
1027.093	0.39760864
1027.25	0.40727954
1027.407	0.39227351
1027.563	0.38753092
1027.72	0.38156803
1027.876	0.36896281
1028.033	0.37013324
1028.19	0.36504358
1028.346	0.34133169
1028.503	0.34708504
1028.659	0.35045363
1028.816	0.35813367
1028.972	0.37982725
1029.128	0.38600729
1029.285	0.38095602
1029.441	0.39522181
1029.598	0.38696035
1029.754	0.40066558
1029.91	0.38993731
1030.067	0.36513344
1030.223	0.36893688
1030.379	0.37545269
1030.535	0.38647443
1030.691	0.3912587
1030.848	0.39562845
1031.004	0.39983728
1031.16	0.4276823
1031.316	0.43621671
1031.472	0.45455541
1031.628	0.43016354
1031.784	0.428411
1031.94	0.41987205
1032.096	0.4283145
1032.252	0.42041548
1032.408	0.42690735
1032.564	0.40962874
1032.72	0.43143844
1032.876	0.41660086
1033.032	0.40103048
1033.188	0.39114829
1033.344	0.39610085
1033.5	0.37930718
1033.655	0.37308071
1033.811	0.36574961
1033.967	0.39559677
