Data from 0_1_mm_pl_10pc_Absorbance__0__18-49-44-613.txt Node

Date: Wed Mar 01 18:49:44 CET 2023
User: Ange
Spectrometer: FLMT08341
Trigger mode: 0
Integration Time (sec): 1.000000E-2
Scans to average: 400
Electric dark correction enabled: true
Nonlinearity correction enabled: false
Boxcar width: 3
XAxis mode: Wavelengths
Number of Pixels in Spectrum: 3648
>>>>>Begin Spectral Data<<<<<
345.271	-0.01034877
345.487	-0.00723957
345.704	-0.02847351
345.921	-0.02545498
346.137	-0.04352688
346.354	-0.05736004
346.571	-0.07320617
346.787	-0.20489158
347.004	0.09527132
347.22	-0.02039716
347.437	0.08836777
347.653	-0.20734305
347.87	0.58308076
348.086	-0
348.303	-0
348.519	0.03105157
348.736	0.03166126
348.952	0.03462292
349.169	0.03506441
349.385	0.03365582
349.601	0.03223982
349.818	0.03046809
350.034	0.03438287
350.251	0.03422953
350.467	0.03600977
350.683	0.03280692
350.9	0.03340403
351.116	0.03313191
351.332	0.03421747
351.549	0.03407973
351.765	0.0365306
351.981	0.03669848
352.197	0.03887314
352.414	0.03872277
352.63	0.04052812
352.846	0.04328226
353.062	0.04322325
353.278	0.0421072
353.495	0.0428523
353.711	0.04291764
353.927	0.04383308
354.143	0.04535057
354.359	0.04297862
354.575	0.04236832
354.792	0.04262434
355.008	0.04271822
355.224	0.04334416
355.44	0.04303832
355.656	0.04100648
355.872	0.0422291
356.088	0.0424546
356.304	0.04408172
356.52	0.04385839
356.736	0.04451086
356.952	0.04634415
357.168	0.04725588
357.384	0.04719846
357.6	0.04669796
357.816	0.04780821
358.032	0.04835311
358.248	0.04977817
358.464	0.0491409
358.679	0.05028033
358.895	0.05000887
359.111	0.05297981
359.327	0.05221838
359.543	0.05244222
359.759	0.05166742
359.974	0.05225203
360.19	0.05113812
360.406	0.0521765
360.622	0.05200816
360.838	0.0512317
361.053	0.05215297
361.269	0.05290939
361.485	0.05323495
361.701	0.05597619
361.916	0.05677241
362.132	0.05655232
362.348	0.05701218
362.563	0.056696
362.779	0.05624989
362.995	0.05658655
363.21	0.05638101
363.426	0.05588234
363.641	0.05528459
363.857	0.05526226
364.073	0.0551935
364.288	0.05534508
364.504	0.05645717
364.719	0.05635413
364.935	0.0566275
365.15	0.0574167
365.366	0.05800946
365.581	0.0586266
365.797	0.05893221
366.012	0.05794275
366.228	0.05724965
366.443	0.0582446
366.658	0.05854784
366.874	0.05866804
367.089	0.05927672
367.305	0.06029173
367.52	0.06018229
367.735	0.06051844
367.951	0.05949584
368.166	0.05941618
368.381	0.06075524
368.597	0.06095455
368.812	0.06144574
369.027	0.06193664
369.243	0.06318782
369.458	0.06431839
369.673	0.06525162
369.888	0.06404364
370.104	0.06400378
370.319	0.06389807
370.534	0.06417075
370.749	0.06390848
370.964	0.06427089
371.179	0.06448854
371.395	0.06528569
371.61	0.06525769
371.825	0.06463708
372.04	0.06597
372.255	0.06595945
372.47	0.06681424
372.685	0.06653803
372.9	0.06649917
373.115	0.06663418
373.33	0.06775158
373.545	0.06823429
373.76	0.0691121
373.975	0.06828235
374.19	0.06798501
374.405	0.06781345
374.62	0.06792481
374.835	0.0685163
375.05	0.06790413
375.265	0.06826083
375.48	0.06833203
375.695	0.07082637
375.91	0.07094671
376.125	0.07128738
376.339	0.07020884
376.554	0.0698775
376.769	0.06925041
376.984	0.07031137
377.199	0.06960395
377.414	0.07066622
377.628	0.07153077
377.843	0.07298063
378.058	0.0735863
378.273	0.07469814
378.487	0.0742807
378.702	0.07492523
378.917	0.07534102
379.131	0.07591765
379.346	0.07445912
379.561	0.07464895
379.775	0.07391861
379.99	0.07389023
380.205	0.07359206
380.419	0.0738808
380.634	0.07302708
380.848	0.07470122
381.063	0.07499433
381.278	0.07636584
381.492	0.07716002
381.707	0.07779925
381.921	0.07742392
382.136	0.07821777
382.35	0.07790699
382.565	0.07812636
382.779	0.07799601
382.994	0.07846496
383.208	0.07820611
383.422	0.07875115
383.637	0.07872188
383.851	0.07956977
384.066	0.08024442
384.28	0.08049098
384.494	0.08100973
384.709	0.08177304
384.923	0.08239466
385.137	0.08298607
385.352	0.0828396
385.566	0.08289279
385.78	0.08274485
385.995	0.08227132
386.209	0.08217572
386.423	0.08257306
386.637	0.08276563
386.852	0.08248284
387.066	0.08297409
387.28	0.08319301
387.494	0.08364309
387.708	0.08371898
387.923	0.08317227
388.137	0.08354044
388.351	0.08432202
388.565	0.08446299
388.779	0.08498517
388.993	0.0853246
389.207	0.08518234
389.421	0.08541743
389.635	0.08509018
389.85	0.08490763
390.064	0.08469288
390.278	0.08449173
390.492	0.08444976
390.706	0.08477317
390.92	0.08508778
391.134	0.0859483
391.348	0.08695195
391.561	0.08705605
391.775	0.08749546
391.989	0.087913
392.203	0.08843403
392.417	0.08875867
392.631	0.08865225
392.845	0.08866857
393.059	0.08938989
393.273	0.08943672
393.486	0.08910099
393.7	0.0890005
393.914	0.08946244
394.128	0.08968003
394.342	0.08943718
394.555	0.08921866
394.769	0.08928925
394.983	0.08998039
395.197	0.09021542
395.41	0.09069254
395.624	0.09099985
395.838	0.09095819
396.051	0.09114934
396.265	0.09182251
396.479	0.09210332
396.692	0.09262136
396.906	0.09221787
397.12	0.09253675
397.333	0.09286326
397.547	0.09332428
397.76	0.0932213
397.974	0.09336134
398.187	0.09340126
398.401	0.09393741
398.614	0.09385706
398.828	0.09374004
399.041	0.09365981
399.255	0.09380191
399.468	0.09390954
399.682	0.0938031
399.895	0.09356348
400.109	0.0932514
400.322	0.09350968
400.536	0.09359228
400.749	0.09421261
400.962	0.09429376
401.176	0.09436255
401.389	0.09448143
401.602	0.09426736
401.816	0.09425589
402.029	0.09456534
402.242	0.09416639
402.456	0.09402977
402.669	0.09410112
402.882	0.0940144
403.095	0.09459506
403.309	0.09484662
403.522	0.09475988
403.735	0.0946871
403.948	0.0947586
404.161	0.09513917
404.375	0.09537044
404.588	0.09574726
404.801	0.09598663
405.014	0.09579584
405.227	0.09624956
405.44	0.09632151
405.653	0.09629787
405.866	0.09621633
406.079	0.09595068
406.293	0.09567618
406.506	0.09607008
406.719	0.0957731
406.932	0.09555871
407.145	0.09538791
407.358	0.09555845
407.571	0.09565345
407.784	0.09579534
407.996	0.09574024
408.209	0.095526
408.422	0.09567965
408.635	0.0955493
408.848	0.09551943
409.061	0.0949749
409.274	0.094738
409.487	0.09447808
409.7	0.09451437
409.912	0.09453239
410.125	0.09482111
410.338	0.0945619
410.551	0.09467496
410.764	0.09492962
410.976	0.09495121
411.189	0.09484054
411.402	0.09470745
411.615	0.09443002
411.827	0.09456177
412.04	0.09450966
412.253	0.09434851
412.465	0.09413465
412.678	0.09404508
412.891	0.09392119
413.103	0.09375981
413.316	0.09343868
413.529	0.09342759
413.741	0.09347818
413.954	0.09330832
414.166	0.09331603
414.379	0.09309713
414.591	0.09299678
414.804	0.09272683
415.016	0.0925465
415.229	0.09196695
415.441	0.0918847
415.654	0.09187568
415.866	0.09169497
416.079	0.09174627
416.291	0.09170914
416.504	0.09169972
416.716	0.09195458
416.928	0.09169068
417.141	0.09145524
417.353	0.09135251
417.566	0.09075608
417.778	0.09076692
417.99	0.09043045
418.203	0.08992075
418.415	0.0898107
418.627	0.08961235
418.839	0.08960965
419.052	0.08970751
419.264	0.08953359
419.476	0.08941026
419.688	0.08938377
419.901	0.08927005
420.113	0.08890294
420.325	0.08882222
420.537	0.08847707
420.749	0.08823326
420.961	0.08810431
421.174	0.08812854
421.386	0.08804346
421.598	0.08786594
421.81	0.08754355
422.022	0.08727437
422.234	0.08704246
422.446	0.08681523
422.658	0.08630099
422.87	0.08602533
423.082	0.08576974
423.294	0.08532698
423.506	0.08530268
423.718	0.08505134
423.93	0.08464088
424.142	0.08436824
424.354	0.08404252
424.566	0.08366525
424.778	0.08357829
424.99	0.0831694
425.202	0.08298967
425.414	0.08271233
425.625	0.08257315
425.837	0.08200375
426.049	0.08185106
426.261	0.08145856
426.473	0.08143576
426.684	0.08113064
426.896	0.08108027
427.108	0.08080093
427.32	0.08088546
427.531	0.08068373
427.743	0.08040545
427.955	0.07999449
428.167	0.0797249
428.378	0.0793729
428.59	0.07897237
428.802	0.07859732
429.013	0.0782901
429.225	0.07798641
429.436	0.07763417
429.648	0.0772477
429.86	0.07683369
430.071	0.07638657
430.283	0.07612303
430.494	0.07548712
430.706	0.07514695
430.917	0.0749162
431.129	0.07470341
431.34	0.07438674
431.552	0.07424147
431.763	0.07370139
431.975	0.07366508
432.186	0.07335904
432.398	0.07293585
432.609	0.07241854
432.821	0.07203758
433.032	0.0717792
433.243	0.07146506
433.455	0.0712847
433.666	0.0709643
433.877	0.07069385
434.089	0.07042487
434.3	0.07030078
434.511	0.06985742
434.723	0.06959448
434.934	0.0694679
435.145	0.06926166
435.356	0.06898318
435.568	0.06875615
435.779	0.0685098
435.99	0.0683708
436.201	0.06833475
436.412	0.06784998
436.624	0.06756041
436.835	0.06729146
437.046	0.06694124
437.257	0.06642864
437.468	0.06611487
437.679	0.06572733
437.89	0.06535546
438.101	0.06484356
438.312	0.06455567
438.523	0.06425866
438.734	0.06399773
438.945	0.06353034
439.156	0.06299289
439.367	0.06275147
439.578	0.06245829
439.789	0.06192432
440	0.0615187
440.211	0.06097574
440.422	0.06054007
440.633	0.06020545
440.844	0.0595526
441.055	0.05917613
441.266	0.05872546
441.477	0.05824034
441.687	0.05793806
441.898	0.05762274
442.109	0.05715693
442.32	0.05682732
442.531	0.05628593
442.741	0.05581882
442.952	0.05546823
443.163	0.05518858
443.374	0.0548223
443.584	0.05459516
443.795	0.05433921
444.006	0.05413675
444.216	0.05381544
444.427	0.05336865
444.638	0.05288389
444.848	0.05246916
445.059	0.05204527
445.27	0.05167418
445.48	0.05127828
445.691	0.05092724
445.901	0.05072117
446.112	0.0504386
446.323	0.04997205
446.533	0.04953957
446.744	0.04911214
446.954	0.04871899
447.165	0.04832867
447.375	0.04786353
447.586	0.0473796
447.796	0.04686507
448.006	0.04662881
448.217	0.04625376
448.427	0.04589831
448.638	0.04568522
448.848	0.04527604
449.058	0.04498628
449.269	0.04493187
449.479	0.04447852
449.689	0.04412416
449.9	0.04380289
450.11	0.0434906
450.32	0.04329097
450.531	0.04301624
450.741	0.04256015
450.951	0.04225686
451.161	0.04192918
451.372	0.04152175
451.582	0.0411768
451.792	0.04076385
452.002	0.04043769
452.212	0.04016594
452.422	0.03982835
452.633	0.03953684
452.843	0.03926917
453.053	0.03880148
453.263	0.03854947
453.473	0.03808591
453.683	0.03770755
453.893	0.03736465
454.103	0.03705839
454.313	0.03681948
454.523	0.03659636
454.733	0.03629848
454.943	0.03619027
455.153	0.0360516
455.363	0.035814
455.573	0.03531701
455.783	0.03506585
455.993	0.03477232
456.203	0.03452618
456.413	0.03416047
456.623	0.03372702
456.833	0.03333499
457.042	0.03310704
457.252	0.0326938
457.462	0.03242556
457.672	0.03213592
457.882	0.03190418
458.091	0.03169056
458.301	0.03149145
458.511	0.03130152
458.721	0.0310053
458.931	0.0307778
459.14	0.03057713
459.35	0.0303203
459.56	0.03004779
459.769	0.02986889
459.979	0.02971019
460.189	0.02947109
460.398	0.02923543
460.608	0.02894844
460.817	0.02865977
461.027	0.02847985
461.237	0.02827426
461.446	0.02807008
461.656	0.02788047
461.865	0.02743478
462.075	0.02720223
462.284	0.02701727
462.494	0.0267923
462.703	0.02645564
462.913	0.02611026
463.122	0.02596275
463.332	0.02599537
463.541	0.02563012
463.751	0.02539715
463.96	0.02518676
464.169	0.02502953
464.379	0.02490986
464.588	0.02466374
464.797	0.02438502
465.007	0.02429027
465.216	0.02410918
465.425	0.02385354
465.635	0.02360982
465.844	0.02349832
466.053	0.02330134
466.263	0.0230103
466.472	0.02278197
466.681	0.02258187
466.89	0.02239548
467.099	0.02228621
467.309	0.02194541
467.518	0.02174248
467.727	0.02158975
467.936	0.02154131
468.145	0.02137287
468.354	0.02122321
468.563	0.02101384
468.772	0.02085476
468.982	0.02071216
469.191	0.02066075
469.4	0.02038403
469.609	0.02028291
469.818	0.02002744
470.027	0.01980887
470.236	0.01970915
470.445	0.01955888
470.654	0.01939592
470.863	0.01919893
471.072	0.0190173
471.28	0.01893504
471.489	0.018818
471.698	0.01858609
471.907	0.01849194
472.116	0.01826375
472.325	0.01811663
472.534	0.0179352
472.743	0.0177975
472.951	0.01766613
473.16	0.01749075
473.369	0.01726444
473.578	0.01722969
473.786	0.01726207
473.995	0.01715832
474.204	0.0171016
474.413	0.01702844
474.621	0.01703313
474.83	0.0170053
475.039	0.01690424
475.247	0.01681916
475.456	0.01678587
475.665	0.01664494
475.873	0.01654253
476.082	0.01655794
476.291	0.01654391
476.499	0.01637664
476.708	0.01624468
476.916	0.01610442
477.125	0.01602661
477.333	0.01595283
477.542	0.0156981
477.75	0.015588
477.959	0.01552523
478.167	0.01547967
478.376	0.01532753
478.584	0.01528478
478.793	0.01517385
479.001	0.01512822
479.209	0.01494636
479.418	0.01489985
479.626	0.0147833
479.834	0.01476779
480.043	0.01468749
480.251	0.01464447
480.459	0.01461703
480.668	0.01463285
480.876	0.01461357
481.084	0.01454207
481.293	0.01448186
481.501	0.01442002
481.709	0.0143264
481.917	0.01426773
482.125	0.01419739
482.334	0.01414596
482.542	0.01407784
482.75	0.01406687
482.958	0.0140569
483.166	0.01402832
483.374	0.01398834
483.583	0.01390369
483.791	0.0137925
483.999	0.01382962
484.207	0.01374739
484.415	0.01365958
484.623	0.0136532
484.831	0.01369066
485.039	0.01369853
485.247	0.01372782
485.455	0.01362095
485.663	0.01357731
485.871	0.01359013
486.079	0.01340884
486.287	0.01327656
486.495	0.01325889
486.702	0.01317646
486.91	0.01312858
487.118	0.01316655
487.326	0.01318311
487.534	0.01329147
487.742	0.01329468
487.95	0.0132859
488.157	0.01330735
488.365	0.01337676
488.573	0.01335846
488.781	0.01326506
488.988	0.01325971
489.196	0.01325348
489.404	0.01327191
489.612	0.01325376
489.819	0.01319151
490.027	0.01325597
490.235	0.01328501
490.442	0.0133082
490.65	0.0133254
490.857	0.01327328
491.065	0.01326589
491.273	0.0132747
491.48	0.01323659
491.688	0.01329158
491.895	0.01330404
492.103	0.01324601
492.31	0.0132108
492.518	0.01320444
492.725	0.01314646
492.933	0.01307081
493.14	0.01302447
493.348	0.01302128
493.555	0.01308912
493.763	0.01316311
493.97	0.01317874
494.177	0.01323656
494.385	0.01329078
494.592	0.01332968
494.8	0.01327315
495.007	0.01322767
495.214	0.01327515
495.422	0.0133108
495.629	0.01332938
495.836	0.01334502
496.043	0.01335991
496.251	0.01340317
496.458	0.01343614
496.665	0.01337327
496.872	0.01341135
497.08	0.01350794
497.287	0.01349648
497.494	0.01347621
497.701	0.01350377
497.908	0.01357934
498.115	0.01361468
498.322	0.01361535
498.53	0.01361461
498.737	0.01371602
498.944	0.01377026
499.151	0.01385712
499.358	0.01386492
499.565	0.01391633
499.772	0.01391452
499.979	0.01391935
500.186	0.01389155
500.393	0.01389136
500.6	0.01387788
500.807	0.01391389
501.014	0.01401448
501.221	0.01412394
501.427	0.01415944
501.634	0.01425627
501.841	0.01435855
502.048	0.01443623
502.255	0.0144513
502.462	0.01445462
502.669	0.01445194
502.875	0.01452625
503.082	0.0145143
503.289	0.01453453
503.496	0.01460117
503.702	0.01471313
503.909	0.01476007
504.116	0.01481504
504.323	0.01485021
504.529	0.01493094
504.736	0.01496108
504.943	0.01496955
505.149	0.01499172
505.356	0.0150889
505.563	0.01519808
505.769	0.01523732
505.976	0.01531608
506.182	0.01536789
506.389	0.01547911
506.595	0.01553981
506.802	0.01552945
507.008	0.0154865
507.215	0.01548823
507.421	0.01548687
507.628	0.01557631
507.834	0.01556514
508.041	0.01561932
508.247	0.01568341
508.454	0.01575008
508.66	0.01586183
508.866	0.0159859
509.073	0.01605636
509.279	0.01612198
509.486	0.01613287
509.692	0.01621654
509.898	0.01638662
510.105	0.01647495
510.311	0.01654607
510.517	0.01660198
510.723	0.01676673
510.93	0.01687587
511.136	0.01693188
511.342	0.0169417
511.548	0.01699845
511.754	0.01703252
511.961	0.01710653
512.167	0.01714145
512.373	0.01719212
512.579	0.01733535
512.785	0.01746396
512.991	0.01756327
513.197	0.01763543
513.404	0.01771653
513.61	0.01774062
513.816	0.01784764
514.022	0.01783322
514.228	0.01785555
514.434	0.01793306
514.64	0.01802558
514.846	0.01813259
515.052	0.01818296
515.258	0.01825454
515.464	0.01837503
515.669	0.01844984
515.875	0.01852915
516.081	0.01860396
516.287	0.01868007
516.493	0.01883062
516.699	0.018877
516.905	0.01896475
517.111	0.01910795
517.316	0.01912663
517.522	0.01926571
517.728	0.01936359
517.934	0.01942833
518.139	0.01956425
518.345	0.01962486
518.551	0.01967885
518.757	0.01984203
518.962	0.01987187
519.168	0.01987701
519.374	0.01994091
519.579	0.02006482
519.785	0.02016628
519.991	0.02025841
520.196	0.0203245
520.402	0.02044077
520.607	0.02057286
520.813	0.02066009
521.018	0.02072002
521.224	0.02077955
521.429	0.02085576
521.635	0.02090144
521.84	0.02098224
522.046	0.02108493
522.251	0.02121979
522.457	0.0213197
522.662	0.02143924
522.868	0.02153732
523.073	0.02168202
523.279	0.02177337
523.484	0.02184583
523.689	0.02192261
523.895	0.02207175
524.1	0.02216961
524.305	0.02230214
524.511	0.02238418
524.716	0.0224622
524.921	0.02259137
525.126	0.02270607
525.332	0.0227308
525.537	0.02280989
525.742	0.02286524
525.947	0.02298558
526.153	0.02308294
526.358	0.02316133
526.563	0.02326037
526.768	0.02338184
526.973	0.02353868
527.178	0.02365348
527.383	0.02377889
527.588	0.02390768
527.794	0.0240227
527.999	0.02414469
528.204	0.02429633
528.409	0.02437217
528.614	0.02446393
528.819	0.02453019
529.024	0.02466271
529.229	0.02477113
529.434	0.02484056
529.639	0.02491631
529.843	0.02504761
530.048	0.02519165
530.253	0.02536876
530.458	0.02549202
530.663	0.02564497
530.868	0.02580075
531.073	0.0259334
531.278	0.02603114
531.482	0.02613646
531.687	0.02622358
531.892	0.02632614
532.097	0.02644854
532.302	0.02655465
532.506	0.02667218
532.711	0.02681531
532.916	0.02695822
533.12	0.02706637
533.325	0.02718857
533.53	0.02727958
533.734	0.02737595
533.939	0.0274892
534.144	0.02763671
534.348	0.02771778
534.553	0.02781422
534.757	0.02789082
534.962	0.02801369
535.167	0.02817806
535.371	0.02827678
535.576	0.02839463
535.78	0.02855141
535.985	0.02872023
536.189	0.02889733
536.394	0.02906468
536.598	0.02915171
536.803	0.02928931
537.007	0.02937235
537.211	0.02948258
537.416	0.02958674
537.62	0.02970325
537.825	0.02976963
538.029	0.02993489
538.233	0.03007291
538.438	0.03023279
538.642	0.03039325
538.846	0.03053307
539.05	0.03064661
539.255	0.03077209
539.459	0.0308959
539.663	0.03100682
539.867	0.03109385
540.072	0.03117323
540.276	0.03132333
540.48	0.03146326
540.684	0.03158009
540.888	0.03168877
541.092	0.03177152
541.297	0.03189989
541.501	0.03209942
541.705	0.03219777
541.909	0.03233596
542.113	0.03251792
542.317	0.03267315
542.521	0.03287042
542.725	0.03302433
542.929	0.03312219
543.133	0.03331467
543.337	0.03344959
543.541	0.03356777
543.745	0.03370636
543.949	0.03387019
544.153	0.03400295
544.357	0.03414503
544.56	0.03425185
544.764	0.03439344
544.968	0.03451679
545.172	0.03465347
545.376	0.03476442
545.58	0.03491261
545.783	0.03505465
545.987	0.03518881
546.191	0.03536975
546.395	0.03557196
546.598	0.03569556
546.802	0.03586871
547.006	0.03604684
547.21	0.03619494
547.413	0.036299
547.617	0.0364144
547.821	0.03654399
548.024	0.03666082
548.228	0.03673784
548.431	0.03683774
548.635	0.03696092
548.839	0.03707223
549.042	0.03716234
549.246	0.03727338
549.449	0.03740035
549.653	0.0375591
549.856	0.03770727
550.06	0.03784302
550.263	0.03807322
550.467	0.03819636
550.67	0.03834077
550.874	0.03851854
551.077	0.03870185
551.28	0.03884915
551.484	0.03898993
551.687	0.03906507
551.891	0.03925245
552.094	0.03934961
552.297	0.03950826
552.501	0.03963226
552.704	0.03975906
552.907	0.03989134
553.11	0.04007849
553.314	0.0402293
553.517	0.040408
553.72	0.0405304
553.923	0.04064876
554.127	0.04082072
554.33	0.04096649
554.533	0.04110615
554.736	0.04123627
554.939	0.04136719
555.142	0.04151329
555.345	0.04164561
555.549	0.04176569
555.752	0.04190048
555.955	0.04203266
556.158	0.04218547
556.361	0.04230392
556.564	0.04244997
556.767	0.0425881
556.97	0.04271924
557.173	0.04285092
557.376	0.04301073
557.579	0.04313829
557.782	0.04333155
557.984	0.04346242
558.187	0.04365095
558.39	0.04380503
558.593	0.04397594
558.796	0.04409205
558.999	0.04422782
559.202	0.0443738
559.404	0.04452442
559.607	0.04465274
559.81	0.04482048
560.013	0.04493545
560.216	0.04508477
560.418	0.04522399
560.621	0.04534325
560.824	0.04547431
561.026	0.04562574
561.229	0.04576233
561.432	0.04596118
561.634	0.04610671
561.837	0.04627734
562.04	0.04639506
562.242	0.04658158
562.445	0.04667727
562.647	0.04681309
562.85	0.04695941
563.053	0.04711663
563.255	0.04722146
563.458	0.04744243
563.66	0.04757814
563.863	0.04772742
564.065	0.04781653
564.268	0.04791212
564.47	0.04803404
564.672	0.0482042
564.875	0.04830515
565.077	0.04845293
565.28	0.04860532
565.482	0.04881369
565.684	0.04894452
565.887	0.0490554
566.089	0.0491469
566.291	0.04929419
566.494	0.04936707
566.696	0.04953823
566.898	0.04962692
567.1	0.04978488
567.303	0.04994122
567.505	0.05012104
567.707	0.05021097
567.909	0.05036833
568.111	0.05049756
568.314	0.05066144
568.516	0.05077402
568.718	0.0509142
568.92	0.0510617
569.122	0.05122033
569.324	0.05142688
569.526	0.05154946
569.728	0.05163979
569.93	0.05176758
570.132	0.05188277
570.334	0.05204507
570.536	0.05217188
570.738	0.05223785
570.94	0.05233051
571.142	0.05252425
571.344	0.05267726
571.546	0.05285562
571.748	0.05294701
571.95	0.05310256
572.152	0.05325175
572.354	0.05339091
572.555	0.05353175
572.757	0.05368199
572.959	0.05380088
573.161	0.05392447
573.363	0.05403634
573.564	0.0541533
573.766	0.05435045
573.968	0.05449024
574.17	0.05453315
574.371	0.05466628
574.573	0.05480072
574.775	0.05493524
574.976	0.05504992
575.178	0.05512041
575.38	0.05517698
575.581	0.05534636
575.783	0.05546595
575.985	0.05560643
576.186	0.05576387
576.388	0.0559373
576.589	0.05605451
576.791	0.05624317
576.992	0.0564136
577.194	0.05652794
577.395	0.05665263
577.597	0.05672608
577.798	0.05681639
578	0.05695627
578.201	0.05708044
578.402	0.05713362
578.604	0.05722356
578.805	0.05734116
579.007	0.05746325
579.208	0.05762629
579.409	0.05774726
579.611	0.05785625
579.812	0.05804649
580.013	0.0582401
580.215	0.05833837
580.416	0.05853195
580.617	0.05862934
580.818	0.05873935
581.019	0.05884599
581.221	0.05897694
581.422	0.05907153
581.623	0.05922021
581.824	0.05925299
582.025	0.0593479
582.226	0.05947979
582.428	0.05961921
582.629	0.05972133
582.83	0.05981198
583.031	0.05986791
583.232	0.06002335
583.433	0.06017412
583.634	0.06026504
583.835	0.06035314
584.036	0.06045223
584.237	0.06058398
584.438	0.06068916
584.639	0.06077192
584.84	0.060836
585.041	0.06094564
585.242	0.06105883
585.442	0.06109673
585.643	0.06119867
585.844	0.06135145
586.045	0.06144577
586.246	0.06153599
586.447	0.06162065
586.647	0.06169557
586.848	0.06181873
587.049	0.0619483
587.25	0.06198682
587.45	0.06207673
587.651	0.06216358
587.852	0.06225455
588.053	0.06239674
588.253	0.06251298
588.454	0.06255995
588.655	0.06267655
588.855	0.06277382
589.056	0.06287484
589.256	0.06295991
589.457	0.06300499
589.658	0.06307702
589.858	0.0631244
590.059	0.06321314
590.259	0.06335545
590.46	0.06347708
590.66	0.06355245
590.861	0.06368152
591.061	0.06382113
591.262	0.06398473
591.462	0.06408917
591.662	0.06409176
591.863	0.06415105
592.063	0.06427009
592.264	0.06431733
592.464	0.06435983
592.664	0.06440759
592.865	0.06453838
593.065	0.06466676
593.265	0.06475438
593.465	0.06481486
593.666	0.06484434
593.866	0.06492528
594.066	0.06504479
594.266	0.06506481
594.467	0.06507309
594.667	0.06513822
594.867	0.06524149
595.067	0.06534832
595.267	0.06541833
595.467	0.06542933
595.668	0.06547698
595.868	0.06558293
596.068	0.0656296
596.268	0.06565752
596.468	0.06573308
596.668	0.06580987
596.868	0.06588956
597.068	0.06595777
597.268	0.06607425
597.468	0.06616223
597.668	0.06624152
597.868	0.06630823
598.068	0.06635032
598.268	0.06638784
598.467	0.06649921
598.667	0.06650345
598.867	0.06652804
599.067	0.0666044
599.267	0.0666186
599.467	0.06667718
599.667	0.06673788
599.866	0.06676728
600.066	0.06682352
600.266	0.06687618
600.466	0.06690079
600.665	0.06695269
600.865	0.06699954
601.065	0.0670405
601.264	0.06703306
601.464	0.06703867
601.664	0.0671123
601.863	0.06717023
602.063	0.0672569
602.263	0.06725232
602.462	0.06731864
602.662	0.06738347
602.861	0.06748525
603.061	0.0675087
603.26	0.06751901
603.46	0.06749687
603.659	0.06756097
603.859	0.06754493
604.058	0.06756811
604.258	0.06758191
604.457	0.06759276
604.657	0.06761197
604.856	0.06765976
605.056	0.06770248
605.255	0.06773441
605.454	0.06776574
605.654	0.06772605
605.853	0.06774341
606.052	0.06778146
606.252	0.06778407
606.451	0.06777735
606.65	0.06779814
606.849	0.06778143
607.049	0.06784263
607.248	0.06791121
607.447	0.06791011
607.646	0.0679337
607.845	0.06798593
608.045	0.06798793
608.244	0.06809097
608.443	0.06809968
608.642	0.06810807
608.841	0.0681406
609.04	0.06812602
609.239	0.06815171
609.438	0.06814785
609.637	0.06813353
609.836	0.0681426
610.035	0.06811425
610.234	0.06816733
610.433	0.06821524
610.632	0.06821632
610.831	0.0682901
611.03	0.06831115
611.229	0.06837982
611.428	0.06845343
611.627	0.06845187
611.826	0.06846469
612.025	0.06850478
612.224	0.06848536
612.422	0.06846257
612.621	0.06842571
612.82	0.06839614
613.019	0.06837438
613.218	0.06839681
613.416	0.06833938
613.615	0.06839522
613.814	0.06843525
614.012	0.06841214
614.211	0.06836973
614.41	0.06837755
614.608	0.06833475
614.807	0.06832317
615.006	0.06828668
615.204	0.06825466
615.403	0.0682808
615.602	0.06833531
615.8	0.06836507
615.999	0.0683698
616.197	0.06834925
616.396	0.06835103
616.594	0.06832732
616.793	0.06835372
616.991	0.0682805
617.19	0.06820291
617.388	0.06822052
617.586	0.06824347
617.785	0.06820619
617.983	0.0681614
618.182	0.06811414
618.38	0.06813473
618.578	0.06815935
618.777	0.06815587
618.975	0.06814
619.173	0.06814233
619.372	0.06818259
619.57	0.06813525
619.768	0.06810547
619.966	0.06807137
620.165	0.06801838
620.363	0.0679755
620.561	0.06791021
620.759	0.06784719
620.957	0.06784653
621.155	0.06784881
621.354	0.06777699
621.552	0.06778167
621.75	0.06774538
621.948	0.06772634
622.146	0.06772284
622.344	0.06770247
622.542	0.06763446
622.74	0.06762988
622.938	0.06753514
623.136	0.06756842
623.334	0.06756404
623.532	0.06745532
623.73	0.06740749
623.928	0.06744409
624.126	0.06742601
624.324	0.06747412
624.522	0.06738136
624.719	0.0673284
624.917	0.06734361
625.115	0.06728831
625.313	0.06724285
625.511	0.06722303
625.708	0.06708292
625.906	0.06703111
626.104	0.06698187
626.302	0.06700994
626.499	0.06699137
626.697	0.06690678
626.895	0.06682872
627.093	0.06682217
627.29	0.06686291
627.488	0.06687986
627.686	0.06680174
627.883	0.0667236
628.081	0.0666732
628.278	0.06669494
628.476	0.06663805
628.673	0.06652395
628.871	0.06644881
629.068	0.06642892
629.266	0.06641202
629.463	0.06636885
629.661	0.06631038
629.858	0.06627336
630.056	0.06623742
630.253	0.06612443
630.451	0.06607723
630.648	0.06599014
630.845	0.06588427
631.043	0.06578179
631.24	0.06575742
631.438	0.06572636
631.635	0.06570083
631.832	0.06557334
632.029	0.06554424
632.227	0.06551129
632.424	0.06546372
632.621	0.06539298
632.818	0.06529532
633.016	0.06523092
633.213	0.06516473
633.41	0.0651044
633.607	0.06504746
633.804	0.06499789
634.001	0.06491306
634.199	0.06491607
634.396	0.06487505
634.593	0.06484671
634.79	0.06483022
634.987	0.06483257
635.184	0.06477604
635.381	0.06477213
635.578	0.06470003
635.775	0.06462982
635.972	0.06456263
636.169	0.06443557
636.366	0.06432292
636.563	0.06422766
636.76	0.06406521
636.957	0.06394971
637.153	0.06384771
637.35	0.06377638
637.547	0.06372046
637.744	0.06366454
637.941	0.06362376
638.138	0.06363675
638.334	0.06355021
638.531	0.06350105
638.728	0.06341738
638.925	0.06341433
639.121	0.06335769
639.318	0.06330499
639.515	0.06318652
639.711	0.06319029
639.908	0.06312361
640.105	0.06306837
640.301	0.06295998
640.498	0.06286023
640.695	0.06280806
640.891	0.06274998
641.088	0.06260484
641.284	0.06252781
641.481	0.06243253
641.677	0.06234189
641.874	0.06221668
642.07	0.06208867
642.267	0.06198592
642.463	0.06190495
642.66	0.06187103
642.856	0.06178933
643.053	0.06163826
643.249	0.06160816
643.445	0.06155653
643.642	0.06149743
643.838	0.06146486
644.034	0.06133472
644.231	0.06123325
644.427	0.06117006
644.623	0.06107312
644.82	0.06100289
645.016	0.06089435
645.212	0.06078417
645.408	0.06069369
645.604	0.0606611
645.801	0.06059562
645.997	0.06053456
646.193	0.06036964
646.389	0.06033708
646.585	0.0602195
646.781	0.06017647
646.977	0.06008263
647.173	0.0599777
647.37	0.05986041
647.566	0.05982027
647.762	0.0596834
647.958	0.05964607
648.154	0.0595199
648.35	0.05945576
648.546	0.05939539
648.742	0.05934329
648.937	0.05919481
649.133	0.05911736
649.329	0.05903067
649.525	0.05896774
649.721	0.0588481
649.917	0.05876923
650.113	0.05866676
650.309	0.05863131
650.504	0.05851138
650.7	0.05835035
650.896	0.05825902
651.092	0.05814349
651.287	0.05803231
651.483	0.05794804
651.679	0.0578272
651.875	0.05778517
652.07	0.05774979
652.266	0.05765555
652.462	0.0575658
652.657	0.05748417
652.853	0.05736056
653.048	0.05727818
653.244	0.05712625
653.44	0.05700601
653.635	0.05685992
653.831	0.05677389
654.026	0.05669814
654.222	0.05662704
654.417	0.05654565
654.613	0.05646613
654.808	0.05637714
655.004	0.05632754
655.199	0.05621935
655.394	0.05610893
655.59	0.05605121
655.785	0.05592566
655.98	0.05582996
656.176	0.05572391
656.371	0.05568133
656.566	0.0556094
656.762	0.05548706
656.957	0.05534115
657.152	0.05527752
657.348	0.05518879
657.543	0.05507526
657.738	0.05493155
657.933	0.05476382
658.128	0.05464506
658.324	0.05451399
658.519	0.05435577
658.714	0.05425589
658.909	0.05417617
659.104	0.05408699
659.299	0.0540664
659.494	0.05399433
659.689	0.05394095
659.884	0.05389934
660.079	0.05380162
660.274	0.05373669
660.469	0.05362047
660.664	0.0535042
660.859	0.05340055
661.054	0.05328509
661.249	0.05316228
661.444	0.05305827
661.639	0.05291282
661.834	0.05283724
662.029	0.05271024
662.224	0.0526199
662.418	0.05249591
662.613	0.05236312
662.808	0.05226057
663.003	0.05215627
663.198	0.05197397
663.392	0.05185066
663.587	0.05179944
663.782	0.05172
663.977	0.05162089
664.171	0.05152842
664.366	0.05144245
664.561	0.05138
664.755	0.05134232
664.95	0.05120377
665.144	0.05108665
665.339	0.05102323
665.534	0.05095662
665.728	0.0508726
665.923	0.05080604
666.117	0.05066957
666.312	0.05055097
666.506	0.05050853
666.701	0.05037713
666.895	0.05025283
667.09	0.05013155
667.284	0.05001378
667.479	0.04993363
667.673	0.04977626
667.867	0.04965668
668.062	0.04957339
668.256	0.04949447
668.45	0.04940791
668.645	0.04927109
668.839	0.04914946
669.033	0.04909455
669.228	0.04896235
669.422	0.04889038
669.616	0.0487564
669.81	0.0486469
670.004	0.04854849
670.199	0.04844258
670.393	0.0483544
670.587	0.04824291
670.781	0.04813335
670.975	0.04804075
671.169	0.04792703
671.363	0.04784754
671.558	0.04774084
671.752	0.0476675
671.946	0.04757605
672.14	0.04745482
672.334	0.04731331
672.528	0.04726858
672.722	0.0471365
672.916	0.04705504
673.11	0.04689273
673.304	0.046828
673.497	0.04673239
673.691	0.04666913
673.885	0.04649981
674.079	0.04644667
674.273	0.04634632
674.467	0.04627459
674.661	0.0461348
674.854	0.0460511
675.048	0.04596151
675.242	0.04590323
675.436	0.04579451
675.629	0.04571654
675.823	0.04560043
676.017	0.04550091
676.211	0.0454042
676.404	0.04532052
676.598	0.04520074
676.792	0.04508792
676.985	0.0449595
677.179	0.0448569
677.372	0.04476979
677.566	0.04464262
677.76	0.04455053
677.953	0.04447347
678.147	0.04439078
678.34	0.04433157
678.534	0.04428122
678.727	0.04422939
678.921	0.04417168
679.114	0.04404446
679.307	0.04395354
679.501	0.04387851
679.694	0.04376637
679.888	0.04365299
680.081	0.04354442
680.274	0.04342901
680.468	0.04333718
680.661	0.04321673
680.854	0.04308844
681.048	0.04301661
681.241	0.04292989
681.434	0.04283139
681.627	0.04275187
681.821	0.0426475
682.014	0.04260776
682.207	0.04253004
682.4	0.04240239
682.593	0.04228386
682.786	0.04215747
682.98	0.04200905
683.173	0.04192948
683.366	0.04181235
683.559	0.04170215
683.752	0.04163449
683.945	0.04156204
684.138	0.04151586
684.331	0.04145069
684.524	0.04138101
684.717	0.04129237
684.91	0.04120899
685.103	0.04109527
685.296	0.04101297
685.489	0.04089473
685.682	0.04078861
685.874	0.04066647
686.067	0.040551
686.26	0.04046287
686.453	0.04038688
686.646	0.04029518
686.839	0.04024944
687.031	0.04020688
687.224	0.04007232
687.417	0.04001938
687.61	0.03993918
687.802	0.03985292
687.995	0.03976902
688.188	0.03961599
688.38	0.03948546
688.573	0.03946397
688.766	0.03936935
688.958	0.03925566
689.151	0.03915117
689.343	0.03907127
689.536	0.03903201
689.729	0.03895595
689.921	0.03886133
690.114	0.03876258
690.306	0.03869794
690.499	0.03868221
690.691	0.03864186
690.884	0.03849905
691.076	0.03843962
691.268	0.03835208
691.461	0.03824287
691.653	0.03815309
691.846	0.03799541
692.038	0.03782982
692.23	0.03775934
692.423	0.03769127
692.615	0.03760565
692.807	0.03751577
692.999	0.0374499
693.192	0.0373606
693.384	0.03731279
693.576	0.0372276
693.768	0.03711938
693.961	0.03704993
694.153	0.03697736
694.345	0.03687344
694.537	0.03682602
694.729	0.03671892
694.921	0.03664919
695.113	0.03659851
695.305	0.03650898
695.498	0.03642377
695.69	0.03638006
695.882	0.03628801
696.074	0.03626203
696.266	0.03618695
696.458	0.03608529
696.65	0.03603898
696.842	0.03598644
697.033	0.03588586
697.225	0.03579375
697.417	0.03569402
697.609	0.03563553
697.801	0.03555456
697.993	0.03544589
698.185	0.03537707
698.376	0.03527941
698.568	0.03520459
698.76	0.03515303
698.952	0.03504275
699.144	0.03495034
699.335	0.03488171
699.527	0.03480299
699.719	0.03477779
699.91	0.03472835
700.102	0.03462585
700.294	0.03458479
700.485	0.03454397
700.677	0.03447849
700.869	0.03441588
701.06	0.0343475
701.252	0.03426563
701.443	0.03420283
701.635	0.03408248
701.826	0.03400975
702.018	0.03395483
702.209	0.0338986
702.401	0.03378964
702.592	0.03375029
702.784	0.03363304
702.975	0.03361323
703.166	0.0335649
703.358	0.03349587
703.549	0.03342261
703.741	0.03337692
703.932	0.03325522
704.123	0.0332429
704.315	0.03318701
704.506	0.03311285
704.697	0.03306161
704.888	0.03301971
705.08	0.03292913
705.271	0.0329229
705.462	0.03284163
705.653	0.03274538
705.844	0.03267574
706.035	0.03259495
706.227	0.03248995
706.418	0.03246947
706.609	0.03236121
706.8	0.03230537
706.991	0.03226771
707.182	0.03224724
707.373	0.03215175
707.564	0.03205384
707.755	0.03196537
707.946	0.03195222
708.137	0.0318906
708.328	0.03183212
708.519	0.03172528
708.71	0.03169564
708.901	0.03166565
709.092	0.0316479
709.283	0.03157562
709.473	0.03151643
709.664	0.03145865
709.855	0.03142256
710.046	0.03135421
710.237	0.03131664
710.427	0.03120695
710.618	0.03112631
710.809	0.03104506
711	0.03096234
711.19	0.03086307
711.381	0.03079284
711.572	0.03069408
711.762	0.03062947
711.953	0.03057731
712.144	0.0305008
712.334	0.03046025
712.525	0.03043563
712.715	0.0303721
712.906	0.03031113
713.097	0.03029534
713.287	0.03024032
713.478	0.03025428
713.668	0.03023849
713.859	0.03021697
714.049	0.03021642
714.239	0.03022461
714.43	0.0301536
714.62	0.03013666
714.811	0.03009648
715.001	0.03002497
715.191	0.02991957
715.382	0.02985054
715.572	0.02978091
715.762	0.02973364
715.953	0.02964042
716.143	0.02954729
716.333	0.02950361
716.523	0.02949452
716.714	0.02942282
716.904	0.02935263
717.094	0.0293078
717.284	0.02927209
717.474	0.02918869
717.664	0.02911709
717.855	0.02903225
718.045	0.02898852
718.235	0.0289514
718.425	0.02893313
718.615	0.02890386
718.805	0.028925
718.995	0.02892686
719.185	0.02891889
719.375	0.02893381
719.565	0.02888569
719.755	0.02883568
719.945	0.02879045
720.135	0.02873066
720.325	0.02867295
720.515	0.02864204
720.704	0.02858174
720.894	0.02858483
721.084	0.02854252
721.274	0.02850557
721.464	0.02847881
721.654	0.02837719
721.843	0.02832453
722.033	0.02823632
722.223	0.02818775
722.413	0.02812488
722.602	0.02808053
722.792	0.02800435
722.982	0.02799761
723.171	0.02790231
723.361	0.02788206
723.55	0.02783408
723.74	0.02779921
723.93	0.02776742
724.119	0.02774497
724.309	0.02771653
724.498	0.02769482
724.688	0.02770877
724.877	0.02764372
725.067	0.02762647
725.256	0.02756383
725.446	0.02753892
725.635	0.02751736
725.825	0.02747409
726.014	0.02737908
726.203	0.02738244
726.393	0.02734299
726.582	0.02729595
726.771	0.02732268
726.961	0.02727849
727.15	0.02726392
727.339	0.02721937
727.529	0.02715061
727.718	0.02705986
727.907	0.02703047
728.096	0.02694516
728.286	0.02691917
728.475	0.02683913
728.664	0.02679081
728.853	0.02676469
729.042	0.02674015
729.231	0.02671526
729.42	0.0266072
729.609	0.0265204
729.799	0.02653564
729.988	0.02651943
730.177	0.02648356
730.366	0.02645217
730.555	0.02642692
730.744	0.02640393
730.933	0.02638114
731.122	0.02634121
731.31	0.02628441
731.499	0.02625605
731.688	0.02623743
731.877	0.02616437
732.066	0.02615694
732.255	0.0261244
732.444	0.02606745
732.632	0.0260131
732.821	0.02596793
733.01	0.02593488
733.199	0.02588841
733.388	0.02581388
733.576	0.02579537
733.765	0.02576345
733.954	0.02580754
734.142	0.02576875
734.331	0.02573555
734.52	0.02572427
734.708	0.02567621
734.897	0.02562907
735.086	0.0255904
735.274	0.0254782
735.463	0.02540397
735.651	0.02537267
735.84	0.02532364
736.028	0.02531502
736.217	0.02527631
736.405	0.02524722
736.594	0.02525649
736.782	0.02523323
736.971	0.02517335
737.159	0.02513808
737.347	0.02508957
737.536	0.02509049
737.724	0.02508698
737.912	0.0250451
738.101	0.02505222
738.289	0.02503761
738.477	0.02498143
738.666	0.0249564
738.854	0.02483683
739.042	0.02474754
739.23	0.02469548
739.418	0.02464824
739.607	0.02465918
739.795	0.02469292
739.983	0.02471492
740.171	0.02474694
740.359	0.02473033
740.547	0.02472985
740.735	0.02466061
740.923	0.02457035
741.112	0.02456457
741.3	0.0244995
741.488	0.02444786
741.676	0.02448226
741.864	0.02447972
742.052	0.02452489
742.239	0.02447628
742.427	0.02439625
742.615	0.02436479
742.803	0.02438303
742.991	0.02430042
743.179	0.02424272
743.367	0.02419857
743.555	0.0242754
743.742	0.0243232
743.93	0.02432316
744.118	0.02428719
744.306	0.02423214
744.494	0.02422554
744.681	0.02418206
744.869	0.02407539
745.057	0.02401903
745.244	0.02402949
745.432	0.02400145
745.62	0.02406956
745.807	0.02406784
745.995	0.02401763
746.182	0.02400847
746.37	0.02400705
746.558	0.02393697
746.745	0.02394883
746.933	0.02390427
747.12	0.02385161
747.308	0.02387793
747.495	0.02392704
747.683	0.02386474
747.87	0.02389365
748.057	0.02381659
748.245	0.02374792
748.432	0.02369306
748.62	0.02363159
748.807	0.02352999
748.994	0.02349546
749.182	0.02346508
749.369	0.02349005
749.556	0.02354801
749.743	0.02359106
749.931	0.02357877
750.118	0.0235845
750.305	0.02355923
750.492	0.02350841
750.68	0.02343711
750.867	0.02333702
751.054	0.02327365
751.241	0.02326703
751.428	0.02321597
751.615	0.02321601
751.802	0.02317962
751.989	0.02320847
752.176	0.02321776
752.363	0.02323373
752.55	0.02317693
752.737	0.02313732
752.924	0.0231249
753.111	0.02311185
753.298	0.02304963
753.485	0.02303566
753.672	0.02294078
753.859	0.02297131
754.046	0.02297575
754.233	0.0229055
754.42	0.02292749
754.606	0.0229452
754.793	0.02290499
754.98	0.02291487
755.167	0.02290547
755.353	0.02290463
755.54	0.02292804
755.727	0.02287796
755.914	0.02280517
756.1	0.02278004
756.287	0.02277725
756.474	0.02273481
756.66	0.02270018
756.847	0.02267947
757.033	0.02262241
757.22	0.02260989
757.407	0.02260943
757.593	0.02259012
757.78	0.02257327
757.966	0.02255098
758.153	0.02252591
758.339	0.02253438
758.526	0.02252096
758.712	0.0224515
758.898	0.02242127
759.085	0.02237783
759.271	0.0223487
759.458	0.02231284
759.644	0.02229873
759.83	0.02227128
760.017	0.02229863
760.203	0.02228409
760.389	0.02226677
760.576	0.02222089
760.762	0.02213374
760.948	0.02210433
761.134	0.0220812
761.32	0.02203706
761.507	0.02197964
761.693	0.02198452
761.879	0.02197626
762.065	0.02203123
762.251	0.02199461
762.437	0.02197816
762.623	0.02195977
762.809	0.02194873
762.995	0.02194655
763.181	0.0219526
763.367	0.02193005
763.553	0.02193075
763.739	0.02189619
763.925	0.02188294
764.111	0.02190643
764.297	0.02183371
764.483	0.02179758
764.669	0.02175188
764.855	0.02169204
765.041	0.02169463
765.227	0.02166154
765.412	0.02164095
765.598	0.02165037
765.784	0.02173561
765.97	0.02175566
766.156	0.02174845
766.341	0.02173839
766.527	0.02174115
766.713	0.02168157
766.898	0.02163895
767.084	0.02150579
767.27	0.02149151
767.455	0.02145151
767.641	0.02140127
767.827	0.02136818
768.012	0.02138538
768.198	0.02137747
768.383	0.0214179
768.569	0.02134695
768.754	0.02134218
768.94	0.0213255
769.125	0.02126506
769.311	0.02122923
769.496	0.02113547
769.682	0.02109679
769.867	0.02105753
770.052	0.02109793
770.238	0.02112319
770.423	0.02112573
770.608	0.02107262
770.794	0.02110324
770.979	0.02107223
771.164	0.02104948
771.35	0.0209875
771.535	0.02094992
771.72	0.02091922
771.905	0.02090065
772.09	0.02095555
772.276	0.0209392
772.461	0.02095441
772.646	0.0209683
772.831	0.02095465
773.016	0.02093317
773.201	0.0209223
773.386	0.02084263
773.571	0.02079562
773.756	0.02074653
773.941	0.02065558
774.126	0.02064539
774.311	0.02063887
774.496	0.02064475
774.681	0.02061188
774.866	0.02057403
775.051	0.02056978
775.236	0.0206357
775.421	0.02053574
775.606	0.02052974
775.791	0.02042176
775.976	0.02044186
776.16	0.02041293
776.345	0.02043958
776.53	0.02037858
776.715	0.02039745
776.899	0.02033751
777.084	0.02033805
777.269	0.02025537
777.454	0.02024121
777.638	0.02017262
777.823	0.0201261
778.008	0.02011951
778.192	0.02013825
778.377	0.02016161
778.561	0.02024282
778.746	0.02028984
778.931	0.02024496
779.115	0.02024565
779.3	0.02022266
779.484	0.02017175
779.669	0.0201467
779.853	0.02004583
780.037	0.02000039
780.222	0.02001049
780.406	0.01994364
780.591	0.0199129
780.775	0.01996428
780.959	0.01997811
781.144	0.020049
781.328	0.01998411
781.512	0.01997247
781.697	0.01999142
781.881	0.01995808
782.065	0.01993487
782.249	0.01988265
782.434	0.01982433
782.618	0.01983591
782.802	0.01981508
782.986	0.01980358
783.17	0.01977607
783.354	0.01970578
783.539	0.01967567
783.723	0.01955857
783.907	0.01957963
784.091	0.01954324
784.275	0.01943829
784.459	0.01947574
784.643	0.01947369
784.827	0.01944987
785.011	0.01947352
785.195	0.01945887
785.379	0.01946965
785.563	0.01957488
785.747	0.0194866
785.93	0.01945046
786.114	0.01939541
786.298	0.0193173
786.482	0.01923699
786.666	0.01920331
786.85	0.01912154
787.033	0.0191587
787.217	0.01915058
787.401	0.01917191
787.585	0.01923987
787.768	0.01923832
787.952	0.01916338
788.136	0.01909971
788.319	0.01900704
788.503	0.01896205
788.687	0.01892143
788.87	0.01890329
789.054	0.01888498
789.237	0.01894771
789.421	0.01894287
789.605	0.01900107
789.788	0.01898935
789.972	0.01897769
790.155	0.01894536
790.338	0.01890716
790.522	0.01881536
790.705	0.01879521
790.889	0.01872856
791.072	0.01872972
791.256	0.01872896
791.439	0.01869002
791.622	0.01862581
791.806	0.01860217
791.989	0.01864204
792.172	0.01859086
792.355	0.01852707
792.539	0.0184498
792.722	0.01836754
792.905	0.01836545
793.088	0.01836317
793.271	0.01831719
793.455	0.01832859
793.638	0.01831541
793.821	0.01835933
794.004	0.01838544
794.187	0.01844893
794.37	0.01844451
794.553	0.01841261
794.736	0.01840241
794.919	0.0183641
795.102	0.01831671
795.285	0.01832309
795.468	0.018222
795.651	0.01818848
795.834	0.0181406
796.017	0.01811748
796.2	0.01806325
796.383	0.0180437
796.566	0.01796404
796.749	0.01794041
796.931	0.01786833
797.114	0.01785884
797.297	0.01782562
797.48	0.01782691
797.663	0.01781467
797.845	0.01778819
798.028	0.01778729
798.211	0.01788149
798.393	0.01792678
798.576	0.01794413
798.759	0.01794297
798.941	0.01795712
799.124	0.01797469
799.307	0.01796649
799.489	0.01787082
799.672	0.01778574
799.854	0.01775248
800.037	0.01775034
800.219	0.017687
800.402	0.01769426
800.584	0.01763483
800.767	0.01757781
800.949	0.01752136
801.132	0.01746658
801.314	0.01739548
801.496	0.01731739
801.679	0.01727831
801.861	0.01723422
802.043	0.01729039
802.226	0.01732321
802.408	0.01729259
802.59	0.01734508
802.772	0.01734627
802.955	0.0173508
803.137	0.01735179
803.319	0.01728141
803.501	0.01717019
803.684	0.01712048
803.866	0.01703034
804.048	0.0169814
804.23	0.01692201
804.412	0.01687569
804.594	0.01685829
804.776	0.016921
804.958	0.01690158
805.14	0.01690846
805.322	0.01691886
805.504	0.01688303
805.686	0.01687453
805.868	0.01682286
806.05	0.01679055
806.232	0.01673834
806.414	0.01672882
806.596	0.01662877
806.778	0.01655223
806.96	0.01659145
807.141	0.01654422
807.323	0.01652768
807.505	0.01651894
807.687	0.01643519
807.869	0.0165188
808.05	0.0165447
808.232	0.01644034
808.414	0.01647428
808.595	0.01639934
808.777	0.01638057
808.959	0.01633572
809.14	0.01626286
809.322	0.01617851
809.504	0.01621097
809.685	0.01614664
809.867	0.01617613
810.048	0.01613215
810.23	0.01616626
810.411	0.01612298
810.593	0.01612034
810.774	0.01599924
810.956	0.01596007
811.137	0.01588945
811.319	0.01588758
811.5	0.0158343
811.681	0.01581714
811.863	0.01584393
812.044	0.01592817
812.225	0.01592162
812.407	0.015882
812.588	0.01586492
812.769	0.01586767
812.951	0.01583429
813.132	0.01575584
813.313	0.01562183
813.494	0.0155122
813.675	0.01550738
813.857	0.01546949
814.038	0.0153929
814.219	0.01542676
814.4	0.01542915
814.581	0.01545662
814.762	0.01558862
814.943	0.01559779
815.124	0.01558399
815.305	0.01563423
815.486	0.01557471
815.667	0.01556633
815.848	0.01552523
816.029	0.01544545
816.21	0.01538781
816.391	0.01535005
816.572	0.01532307
816.753	0.01538142
816.934	0.01535814
817.115	0.01537361
817.295	0.01540673
817.476	0.01536047
817.657	0.01534234
817.838	0.0152849
818.019	0.01513536
818.199	0.01503945
818.38	0.01489369
818.561	0.01478496
818.741	0.01478634
818.922	0.01478003
819.103	0.01474067
819.283	0.01472624
819.464	0.01474616
819.645	0.01483071
819.825	0.01479453
820.006	0.01474552
820.186	0.01469435
820.367	0.01464723
820.547	0.01460378
820.728	0.01459108
820.908	0.01453474
821.089	0.01455645
821.269	0.01452586
821.45	0.01455117
821.63	0.01458455
821.81	0.01463842
821.991	0.01462152
822.171	0.01462383
822.351	0.01456081
822.532	0.0145181
822.712	0.01442077
822.892	0.01429854
823.072	0.0142382
823.253	0.01413746
823.433	0.01405176
823.613	0.01403844
823.793	0.0140371
823.973	0.01400945
824.154	0.01401392
824.334	0.01397476
824.514	0.01395924
824.694	0.01395656
824.874	0.0138702
825.054	0.01372062
825.234	0.01377118
825.414	0.01369396
825.594	0.0135966
825.774	0.01356413
825.954	0.01354429
826.134	0.01358362
826.314	0.01374685
826.494	0.01370088
826.674	0.0137473
826.854	0.01378488
827.033	0.01377657
827.213	0.01365083
827.393	0.01358007
827.573	0.01344896
827.753	0.01337754
827.932	0.01331433
828.112	0.01329923
828.292	0.01330313
828.472	0.01333072
828.651	0.0133576
828.831	0.01335584
829.011	0.01333102
829.19	0.01333699
829.37	0.01330111
829.549	0.01320676
829.729	0.01318953
829.909	0.01315853
830.088	0.01313322
830.268	0.01310518
830.447	0.01308025
830.627	0.01313328
830.806	0.01318078
830.986	0.01321525
831.165	0.01317577
831.344	0.01315613
831.524	0.0131795
831.703	0.01316362
831.883	0.01302204
832.062	0.01294761
832.241	0.01288134
832.421	0.01278459
832.6	0.01270799
832.779	0.01254502
832.958	0.01250284
833.138	0.01246963
833.317	0.01249997
833.496	0.01248561
833.675	0.01250651
833.854	0.01252329
834.034	0.01256268
834.213	0.01254122
834.392	0.01254135
834.571	0.01247659
834.75	0.01239337
834.929	0.01234335
835.108	0.01228803
835.287	0.0122747
835.466	0.01218878
835.645	0.01218927
835.824	0.01211834
836.003	0.0121556
836.182	0.01215802
836.361	0.01211797
836.54	0.01208971
836.719	0.01204147
836.897	0.01195644
837.076	0.01196919
837.255	0.011896
837.434	0.01184848
837.613	0.01188133
837.791	0.0117687
837.97	0.01179563
838.149	0.011835
838.328	0.01176907
838.506	0.01181785
838.685	0.01179449
838.864	0.01174509
839.042	0.01173873
839.221	0.01172181
839.4	0.0116257
839.578	0.01157334
839.757	0.01148087
839.935	0.01139902
840.114	0.01134352
840.292	0.01139048
840.471	0.0114298
840.649	0.01151428
840.828	0.01150237
841.006	0.01147236
841.185	0.01154756
841.363	0.01152144
841.541	0.01145588
841.72	0.01138199
841.898	0.01124286
842.076	0.01123445
842.255	0.0111797
842.433	0.01103545
842.611	0.01095616
842.789	0.01093083
842.968	0.0107986
843.146	0.01077591
843.324	0.01074294
843.502	0.0107496
843.68	0.01080216
843.859	0.01089522
844.037	0.01078973
844.215	0.01076946
844.393	0.01072396
844.571	0.01065798
844.749	0.01057398
844.927	0.01055287
845.105	0.01046027
845.283	0.01051819
845.461	0.01059846
845.639	0.01062366
845.817	0.01065803
845.995	0.01071339
846.173	0.01068707
846.351	0.01070718
846.529	0.01067968
846.706	0.01060933
846.884	0.01057758
847.062	0.0104584
847.24	0.01037524
847.418	0.01023734
847.595	0.01016406
847.773	0.01017023
847.951	0.01011851
848.129	0.01015094
848.306	0.01022561
848.484	0.01023261
848.662	0.01030368
848.839	0.01030979
849.017	0.01025289
849.194	0.01031032
849.372	0.0102485
849.549	0.01015124
849.727	0.01008283
849.905	0.00999508
850.082	0.00991387
850.26	0.00992176
850.437	0.00988445
850.614	0.00989479
850.792	0.00996828
850.969	0.00996381
851.147	0.01001511
851.324	0.01004972
851.501	0.01000747
851.679	0.00993678
851.856	0.00982257
852.033	0.00977389
852.211	0.00969834
852.388	0.0096326
852.565	0.00960898
852.742	0.00954769
852.92	0.00949228
853.097	0.00951482
853.274	0.00951519
853.451	0.00953396
853.628	0.00952448
853.805	0.00941889
853.982	0.0093821
854.159	0.00940824
854.336	0.00935287
854.514	0.00920079
854.691	0.00917061
854.868	0.00913238
855.045	0.00904095
855.221	0.00905187
855.398	0.00895711
855.575	0.00884004
855.752	0.00896021
855.929	0.0089167
856.106	0.00884986
856.283	0.00892379
856.46	0.0088786
856.637	0.00889082
856.813	0.00890394
856.99	0.00883811
857.167	0.00880485
857.344	0.0088095
857.52	0.00877554
857.697	0.00869536
857.874	0.00861867
858.05	0.00865578
858.227	0.00853465
858.404	0.00855031
858.58	0.00850315
858.757	0.00849008
858.933	0.00853446
859.11	0.00856104
859.287	0.00844695
859.463	0.0084684
859.64	0.00844919
859.816	0.00844114
859.993	0.0083841
860.169	0.00827306
860.345	0.00820563
860.522	0.00826774
860.698	0.00818867
860.875	0.00811995
861.051	0.00811384
861.227	0.00802354
861.404	0.00805746
861.58	0.00805142
861.756	0.00796294
861.932	0.00792762
862.109	0.00793563
862.285	0.00792119
862.461	0.007964
862.637	0.00792351
862.813	0.00791564
862.99	0.00792782
863.166	0.00797311
863.342	0.00787654
863.518	0.0078417
863.694	0.00785268
863.87	0.00784335
864.046	0.00784349
864.222	0.00783494
864.398	0.00792062
864.574	0.00796945
864.75	0.00792426
864.926	0.007902
865.102	0.00785212
865.278	0.00770272
865.454	0.00766405
865.63	0.00751412
865.805	0.00744635
865.981	0.0074232
866.157	0.0074266
866.333	0.0074122
866.509	0.00751025
866.684	0.00754497
866.86	0.0075469
867.036	0.00756462
867.212	0.00751748
867.387	0.0074237
867.563	0.00739096
867.739	0.00727475
867.914	0.00711627
868.09	0.00708884
868.265	0.00699815
868.441	0.00692042
868.617	0.00692239
868.792	0.00691744
868.968	0.00694738
869.143	0.00700591
869.319	0.00695092
869.494	0.00706831
869.67	0.00714701
869.845	0.00714161
870.02	0.0070771
870.196	0.00705123
870.371	0.00695131
870.546	0.00689017
870.722	0.00678547
870.897	0.00670117
871.072	0.00664123
871.248	0.00670336
871.423	0.00670914
871.598	0.00677747
871.773	0.00682079
871.949	0.00668437
872.124	0.00682744
872.299	0.00684337
872.474	0.00683434
872.649	0.00680718
872.824	0.00676159
872.999	0.00670645
873.174	0.0067793
873.349	0.00659625
873.524	0.0064954
873.699	0.00644244
873.874	0.0063609
874.049	0.00632134
874.224	0.00637542
874.399	0.00641132
874.574	0.00639985
874.749	0.00652031
874.924	0.0064996
875.099	0.00650939
875.274	0.00654536
875.449	0.00648185
875.623	0.00636867
875.798	0.00626104
875.973	0.00604416
876.148	0.0060042
876.322	0.00588682
876.497	0.0057946
876.672	0.00583226
876.846	0.00585804
877.021	0.00592782
877.196	0.00611702
877.37	0.00616551
877.545	0.00625278
877.72	0.00631831
877.894	0.00626529
878.069	0.00635999
878.243	0.0063114
878.418	0.00611964
878.592	0.00598402
878.767	0.00593358
878.941	0.00581608
879.116	0.00567779
879.29	0.00549311
879.464	0.00547738
879.639	0.00549262
879.813	0.0055428
879.987	0.00555696
880.162	0.00559253
880.336	0.00572584
880.51	0.00580077
880.685	0.00584813
880.859	0.00583148
881.033	0.00572708
881.207	0.00562383
881.381	0.00557037
881.556	0.00541944
881.73	0.00526733
881.904	0.00525292
882.078	0.0052461
882.252	0.00531285
882.426	0.00542156
882.6	0.00544765
882.774	0.00550552
882.948	0.00548182
883.122	0.00551198
883.296	0.00556142
883.47	0.00555393
883.644	0.00548189
883.818	0.00547955
883.992	0.00544714
884.166	0.00546305
884.34	0.00538854
884.514	0.00527714
884.687	0.00516155
884.861	0.0052885
885.035	0.00534711
885.209	0.00535801
885.382	0.00539405
885.556	0.00540293
885.73	0.00544789
885.904	0.00553131
886.077	0.00532791
886.251	0.00522384
886.425	0.00508139
886.598	0.00497324
886.772	0.00481468
886.945	0.00476631
887.119	0.00459385
887.292	0.00462846
887.466	0.0045107
887.64	0.00449954
887.813	0.00453974
887.986	0.00462258
888.16	0.00464909
888.333	0.00479712
888.507	0.00488064
888.68	0.00501815
888.854	0.00516109
889.027	0.00518969
889.2	0.00511142
889.374	0.00505542
889.547	0.00499523
889.72	0.00482695
889.893	0.00453883
890.067	0.00446498
890.24	0.00432803
890.413	0.00444165
890.586	0.00439813
890.759	0.00442573
890.933	0.00444664
891.106	0.00456089
891.279	0.00459412
891.452	0.00471958
891.625	0.00459088
891.798	0.00469671
891.971	0.00452042
892.144	0.00447465
892.317	0.0044421
892.49	0.00434058
892.663	0.00424784
892.836	0.00424617
893.009	0.00411825
893.182	0.00416595
893.355	0.00420292
893.527	0.00427094
893.7	0.00428015
893.873	0.00436258
894.046	0.00444972
894.219	0.00438259
894.391	0.0043932
894.564	0.004342
894.737	0.00426208
894.91	0.00418899
895.082	0.00402603
895.255	0.00389934
895.428	0.00389541
895.6	0.00385715
895.773	0.00387334
895.945	0.00390161
896.118	0.00384315
896.291	0.00383525
896.463	0.0037866
896.636	0.003873
896.808	0.00391412
896.981	0.0039621
897.153	0.00396058
897.326	0.00396164
897.498	0.00393776
897.67	0.00394993
897.843	0.00391364
898.015	0.00376336
898.187	0.00368256
898.36	0.00368247
898.532	0.00374902
898.704	0.00370272
898.877	0.00370583
899.049	0.00361112
899.221	0.00376647
899.393	0.00366505
899.566	0.00361324
899.738	0.00354503
899.91	0.00359029
900.082	0.00358119
900.254	0.00348514
900.426	0.00335171
900.598	0.00335513
900.77	0.00324761
900.942	0.00314243
901.114	0.002986
901.286	0.00280573
901.458	0.00285425
901.63	0.0028619
901.802	0.00289475
901.974	0.00300042
902.146	0.00316619
902.318	0.00335691
902.49	0.00361307
902.662	0.00367015
902.834	0.00360388
903.005	0.0035924
903.177	0.0035064
903.349	0.00336921
903.521	0.00321055
903.693	0.00304426
903.864	0.00288898
904.036	0.0029428
904.208	0.00290093
904.379	0.00296795
904.551	0.00305233
904.723	0.00324776
904.894	0.00332114
905.066	0.00334953
905.237	0.00339352
905.409	0.00336335
905.58	0.00330611
905.752	0.00325599
905.923	0.00313802
906.095	0.00309029
906.266	0.00310425
906.438	0.00307487
906.609	0.00304034
906.78	0.0030705
906.952	0.00292416
907.123	0.00298702
907.295	0.0029491
907.466	0.00294741
907.637	0.0028668
907.808	0.00290395
907.98	0.00291564
908.151	0.0031024
908.322	0.00307025
908.493	0.00303921
908.665	0.00298927
908.836	0.00298052
909.007	0.00297484
909.178	0.00289647
909.349	0.00287988
909.52	0.00273506
909.691	0.0026397
909.862	0.00271471
910.033	0.00273805
910.204	0.00274378
910.375	0.00279042
910.546	0.00273397
910.717	0.0028635
910.888	0.00298355
911.059	0.002876
911.23	0.00284225
911.401	0.00285204
911.572	0.00284297
911.742	0.00274426
911.913	0.0026381
912.084	0.00254695
912.255	0.00252605
912.426	0.00245901
912.596	0.00235476
912.767	0.00221268
912.938	0.0022379
913.108	0.00223625
913.279	0.00223678
913.45	0.0023199
913.62	0.00232146
913.791	0.00237603
913.962	0.00242742
914.132	0.0024709
914.303	0.0025612
914.473	0.00259434
914.644	0.00252266
914.814	0.0024613
914.985	0.00240278
915.155	0.00236985
915.326	0.00221465
915.496	0.00202016
915.666	0.00192538
915.837	0.00194603
916.007	0.00196832
916.177	0.00198042
916.348	0.00195967
916.518	0.00211451
916.688	0.00219549
916.858	0.00225808
917.029	0.00237213
917.199	0.00254603
917.369	0.0025004
917.539	0.00265912
917.709	0.00251229
917.88	0.00244157
918.05	0.00238938
918.22	0.00220926
918.39	0.00206671
918.56	0.00202615
918.73	0.00179186
918.9	0.00177941
919.07	0.00187553
919.24	0.00196611
919.41	0.00207193
919.58	0.00224472
919.75	0.00223592
919.92	0.00233419
920.09	0.00239662
920.26	0.0024437
920.429	0.00236345
920.599	0.0023651
920.769	0.0021173
920.939	0.00217151
921.109	0.00209257
921.278	0.0020393
921.448	0.00191301
921.618	0.00184046
921.787	0.00177458
921.957	0.00178651
922.127	0.0017781
922.296	0.0019418
922.466	0.00191408
922.636	0.00186438
922.805	0.00194622
922.975	0.00192086
923.144	0.00197565
923.314	0.00198341
923.483	0.00179817
923.653	0.00193441
923.822	0.00204516
923.992	0.002044
924.161	0.00199681
924.331	0.00187922
924.5	0.00186518
924.669	0.00179612
924.839	0.00165122
925.008	0.00162591
925.177	0.00153587
925.347	0.00153534
925.516	0.001576
925.685	0.00156532
925.854	0.00168689
926.023	0.00171092
926.193	0.00174901
926.362	0.00181426
926.531	0.00179035
926.7	0.00180809
926.869	0.00177588
927.038	0.00178921
927.207	0.00180811
927.376	0.00164878
927.545	0.00155033
927.715	0.00165408
927.884	0.00162636
928.052	0.00168387
928.221	0.00159158
928.39	0.00159824
928.559	0.0017347
928.728	0.00187661
928.897	0.0017188
929.066	0.00183567
929.235	0.00177641
929.404	0.00177147
929.572	0.00164012
929.741	0.00154929
929.91	0.00136755
930.079	0.00143578
930.247	0.00135345
930.416	0.00131175
930.585	0.00124542
930.753	0.0013613
930.922	0.00140329
931.091	0.00141448
931.259	0.00150041
931.428	0.00144987
931.596	0.00148399
931.765	0.0016851
931.934	0.00152885
932.102	0.00160685
932.27	0.00163185
932.439	0.00178057
932.607	0.00180394
932.776	0.00156435
932.944	0.0012967
933.113	0.00135403
933.281	0.00111462
933.449	0.00120597
933.618	0.00078623
933.786	0.0008258
933.954	0.00096783
934.123	0.00108521
934.291	0.00115463
934.459	0.00134114
934.627	0.00143242
934.795	0.00165056
934.964	0.00166054
935.132	0.00181239
935.3	0.00194767
935.468	0.00200406
935.636	0.00214775
935.804	0.00226523
935.972	0.00229096
936.14	0.00257161
936.308	0.00266633
936.476	0.00266058
936.644	0.0027151
936.812	0.0024247
936.98	0.00215553
937.148	0.00210506
937.316	0.00200228
937.484	0.00177466
937.652	0.00177506
937.82	0.00180268
937.987	0.00186174
938.155	0.00213675
938.323	0.00251073
938.491	0.00239701
938.658	0.00271525
938.826	0.00255329
938.994	0.00269134
939.162	0.00267647
939.329	0.00255883
939.497	0.0023793
939.665	0.00217326
939.832	0.00175978
940	0.00188207
940.167	0.00182533
940.335	0.0022139
940.502	0.00237366
940.67	0.00221541
940.837	0.0021486
941.005	0.00285797
941.172	0.00301243
941.34	0.00277493
941.507	0.00246612
941.674	0.00266319
941.842	0.00232979
942.009	0.0031354
942.177	0.00285854
942.344	0.00309201
942.511	0.00375571
942.678	0.00368919
942.846	0.00438606
943.013	0.00499523
943.18	0.00473974
943.347	0.00498261
943.514	0.00552899
943.682	0.00556634
943.849	0.00622273
944.016	0.00514346
944.183	0.0055052
944.35	0.00550971
944.517	0.00519118
944.684	0.00414247
944.851	0.00367765
945.018	0.00386131
945.185	0.00377749
945.352	0.00383103
945.519	0.00404066
945.686	0.00459915
945.853	0.00411605
946.02	0.00445156
946.187	0.00365554
946.353	0.00357565
946.52	0.00269565
946.687	0.00207165
946.854	0.00235548
947.021	0.00385678
947.187	0.00332409
947.354	0.00419141
947.521	0.00410125
947.687	0.00427428
947.854	0.00369466
948.021	0.00308064
948.187	0.00299926
948.354	0.00345878
948.52	0.0028763
948.687	0.00306413
948.854	0.00379329
949.02	0.00416103
949.187	0.00446539
949.353	0.00443293
949.52	0.00439954
949.686	0.00419833
949.852	0.00378177
950.019	0.00368949
950.185	0.00406766
950.352	0.00378187
950.518	0.00331599
950.684	0.00239053
950.851	0.00196051
951.017	0.00231572
951.183	0.00210402
951.349	0.00190309
951.516	0.00177599
951.682	0.00204149
951.848	0.00273429
952.014	0.00235547
952.18	0.00197852
952.346	0.00199547
952.512	0.0022544
952.679	0.00220574
952.845	0.00168478
953.011	0.00126149
953.177	0.00234838
953.343	0.00257966
953.509	0.00198297
953.675	0.0016051
953.841	0.00161946
954.007	0.00184612
954.172	0.00255842
954.338	0.00214517
954.504	0.00223103
954.67	0.00289932
954.836	0.00231594
955.002	0.00187138
955.167	0.00163478
955.333	0.00097599
955.499	0.00077853
955.665	0.00060276
955.83	0.00000589
955.996	0.00104049
956.162	0.0011298
956.327	0.00150461
956.493	0.0018568
956.659	0.00173504
956.824	0.00170126
956.99	0.00154685
957.155	0.00083492
957.321	0.00118784
957.486	0.00097334
957.652	0.00074084
957.817	0.00039403
957.983	0.00071234
958.148	0.0011081
958.314	0.00122342
958.479	0.0004941
958.644	0.00037478
958.81	0.00065504
958.975	0.00105635
959.14	0.00043929
959.306	0.00030107
959.471	-0.00003779
959.636	0.00019804
959.801	0.00017129
959.967	-0.00032244
960.132	-0.00017604
960.297	0.00010708
960.462	0.00021591
960.627	0.00063757
960.792	0.00084684
960.957	0.00098038
961.123	0.00087102
961.288	0.00119494
961.453	0.00141459
961.618	0.00155841
961.783	0.00167812
961.948	0.00167167
962.113	0.00169174
962.277	0.00194041
962.442	0.00147898
962.607	0.00118707
962.772	0.00120207
962.937	0.00125513
963.102	0.00122659
963.267	0.00089042
963.431	0.00055819
963.596	0.00048335
963.761	0.00055466
963.926	0.00023374
964.09	-0.00052308
964.255	-0.0006299
964.42	-0.00069999
964.584	-0.0005147
964.749	-0.00034411
964.914	-0.00080455
965.078	-0.00076435
965.243	-0.00023077
965.407	-0.00041041
965.572	-0.00030269
965.736	-0.00004031
965.901	-0.00033817
966.065	0.00017927
966.23	0.00019413
966.394	0.00013212
966.559	0.00038123
966.723	0.00022658
966.887	0.00040417
967.052	0.00087001
967.216	0.00095091
967.38	0.00056688
967.545	0.00063576
967.709	0.00091327
967.873	0.00127984
968.037	0.00106624
968.202	0.00082776
968.366	0.00053236
968.53	0.00072975
968.694	0.00038478
968.858	0.00031181
969.022	0.00046802
969.187	0.00007721
969.351	0.00029806
969.515	0.0001097
969.679	0.00010954
969.843	0.000609
970.007	0.00033657
970.171	-0.00006923
970.335	0.00017266
970.499	-0.00032173
970.662	0.00000055
970.826	0.00000187
970.99	-0.00022055
971.154	-0.00002936
971.318	0.00018304
971.482	0.00034206
971.645	0.00040394
971.809	0.00046165
971.973	0.00071378
972.137	0.00050702
972.3	0.00042116
972.464	0.00041173
972.628	0.00040498
972.791	0.00105389
972.955	0.00089443
973.119	0.0007698
973.282	0.00100014
973.446	0.00146175
973.609	0.00172434
973.773	0.00165058
973.936	0.00126457
974.1	0.00102217
974.263	0.00101589
974.427	0.00064607
974.59	0.00046258
974.754	0.00039593
974.917	0.0002795
975.08	0.00014474
975.244	0.00075912
975.407	0.00076863
975.57	0.00095537
975.734	0.00076947
975.897	0.00090746
976.06	0.00070601
976.223	0.00108742
976.387	0.00092177
976.55	0.00103484
976.713	0.00127053
976.876	0.00101028
977.039	0.00037643
977.202	0.00044937
977.365	0.00010107
977.528	0.00012219
977.692	-0.00002805
977.855	0.00000505
978.018	0.0002988
978.181	0.00050947
978.344	0.00071823
978.506	0.00095255
978.669	0.00060234
978.832	0.00041324
978.995	0.00012708
979.158	-0.00015379
979.321	-0.00006981
979.484	0.00007309
979.646	-0.00001819
979.809	-0.00006649
979.972	0.00022934
980.135	0.00029358
980.297	0.00030054
980.46	0.00023143
980.623	-0.000252
980.786	-0.00058428
980.948	-0.00049431
981.111	-0.00063281
981.273	-0.0005456
981.436	-0.00040764
981.599	-0.00046667
981.761	-0.00019486
981.924	-0.00008193
982.086	-0.0000368
982.249	0.00024962
982.411	0.00032759
982.573	0.00062518
982.736	0.0006749
982.898	0.00101244
983.061	0.0011304
983.223	0.00118639
983.385	0.00096272
983.548	0.00057082
983.71	0.00080554
983.872	0.0010416
984.034	0.00107791
984.197	0.00111372
984.359	0.00127006
984.521	0.00157176
984.683	0.00229272
984.845	0.00172961
985.008	0.00111564
985.17	0.00082568
985.332	0.00068632
985.494	0.00072168
985.656	0.00056413
985.818	0.00019621
985.98	0.00012583
986.142	0.00013457
986.304	0.00007107
986.466	0.00027699
986.628	0.00008616
986.79	-0.00023856
986.952	-0.00011123
987.113	0.00016611
987.275	0.00007318
987.437	0.00032616
987.599	-0.00009856
987.761	-0.00029345
987.922	0.00050243
988.084	0.00027034
988.246	0.00001777
988.408	0.00046856
988.569	0.00005558
988.731	0.00106129
988.893	0.00146335
989.054	0.00069417
989.216	0.00097581
989.377	0.00128631
989.539	0.00124229
989.701	0.00145373
989.862	0.00037899
990.024	-0.00005262
990.185	-0.00005356
990.347	0.00030283
990.508	-0.0000997
990.669	0.0003321
990.831	0.00050429
990.992	0.00123927
991.154	0.00149849
991.315	0.00199356
991.476	0.00165998
991.638	0.00211655
991.799	0.00231619
991.96	0.00189363
992.121	0.00188041
992.283	0.00145648
992.444	0.00120287
992.605	0.00113458
992.766	0.00102332
992.927	0.00006854
993.088	0.00064737
993.249	0.00035561
993.41	0.00110148
993.572	0.00081021
993.733	0.00078135
993.894	0.00064251
994.055	0.00131026
994.216	0.00054638
994.376	0.00055859
994.537	0.00058021
994.698	0.00114258
994.859	0.00110397
995.02	0.00164466
995.181	0.00174577
995.342	0.00201701
995.503	0.00244666
995.663	0.00223104
995.824	0.00221031
995.985	0.00230814
996.146	0.00194036
996.306	0.00161256
996.467	0.0020795
996.628	0.00226275
996.788	0.00308905
996.949	0.00302963
997.11	0.00350501
997.27	0.00380832
997.431	0.00355417
997.591	0.0038479
997.752	0.00338172
997.912	0.00325398
998.073	0.00262662
998.233	0.00214626
998.394	0.00157134
998.554	0.0015966
998.714	0.00210692
998.875	0.00218532
999.035	0.00109615
999.196	0.0010926
999.356	0.00135728
999.516	0.00210693
999.676	0.00264582
999.837	0.00189882
999.997	0.00160886
1000.157	0.0020674
1000.317	0.00300327
1000.477	0.00174447
1000.638	0.0016722
1000.798	0.00069332
1000.958	0.00035608
1001.118	-0.0001913
1001.278	-0.00028075
1001.438	-0.00050757
1001.598	0.0003522
1001.758	-0.00072506
1001.918	0.00058665
1002.078	-0.00053492
1002.238	-0.00058835
1002.398	-0.00035386
1002.558	0.00007681
1002.718	0.0008855
1002.878	0.00257906
1003.037	0.00243316
1003.197	0.00357585
1003.357	0.00437589
1003.517	0.00438268
1003.677	0.00323178
1003.836	0.00279539
1003.996	0.00165562
1004.156	0.00141125
1004.315	0.00230175
1004.475	0.00277708
1004.635	0.00219901
1004.794	0.00277926
1004.954	0.00266579
1005.114	0.00188234
1005.273	0.00178969
1005.433	0.00064691
1005.592	0.00053906
1005.752	0.00158092
1005.911	0.00191967
1006.071	0.00256589
1006.23	0.00348801
1006.389	0.00478165
1006.549	0.00506579
1006.708	0.00567229
1006.868	0.00458846
1007.027	0.00487724
1007.186	0.00380224
1007.345	0.00405432
1007.505	0.00406079
1007.664	0.00374087
1007.823	0.00347755
1007.982	0.00434139
1008.142	0.00424099
1008.301	0.00485032
1008.46	0.0033361
1008.619	0.00222045
1008.778	0.00334967
1008.937	0.00179597
1009.096	0.00212649
1009.255	0.00313277
1009.414	0.00290752
1009.573	0.00468326
1009.732	0.00448187
1009.891	0.0044633
1010.05	0.00434633
1010.209	0.00285591
1010.368	0.00149212
1010.527	0.00213054
1010.686	0.00060746
1010.845	0.00131063
1011.003	0.00090978
1011.162	0.00118338
1011.321	0.00261989
1011.48	0.00200414
1011.638	0.00165807
1011.797	0.00325534
1011.956	0.00227602
1012.115	0.00179473
1012.273	0.00359556
1012.432	0.00464348
1012.59	0.00606465
1012.749	0.00509901
1012.908	0.00560153
1013.066	0.00589627
1013.225	0.006685
1013.383	0.00606697
1013.542	0.00385904
1013.7	0.00152338
1013.859	0.0038748
1014.017	0.00218866
1014.175	0.00389619
1014.334	0.00397655
1014.492	0.00383495
1014.65	0.00507992
1014.809	0.0059896
1014.967	0.00421886
1015.125	0.00624911
1015.284	0.00452454
1015.442	0.00562846
1015.6	0.00651371
1015.758	0.00754213
1015.916	0.00730184
1016.075	0.00608551
1016.233	0.00642831
1016.391	0.00788285
1016.549	0.00513857
1016.707	0.00404398
1016.865	0.00238511
1017.023	0.00445846
1017.181	0.00531843
1017.339	0.00376918
1017.497	0.00196937
1017.655	0.00440796
1017.813	0.00576885
1017.971	0.007449
1018.129	0.00571736
1018.286	0.00775767
1018.444	0.00728231
1018.602	0.00786568
1018.76	0.0058122
1018.918	0.00533047
1019.075	0.00449046
1019.233	0.0081703
1019.391	0.00666524
1019.549	0.0064327
1019.706	0.0071642
1019.864	0.00809565
1020.022	0.00738308
1020.179	0.00633371
1020.337	-0.00054248
1020.494	-0.00136499
1020.652	-0.00272671
1020.809	-0.00410133
1020.967	-0.00413829
1021.124	-0.00432582
1021.282	-0.00174001
1021.439	0.00138859
1021.597	0.0014299
1021.754	0.00349728
1021.911	0.00536403
1022.069	0.00842206
1022.226	0.00796031
1022.384	0.00511591
1022.541	0.00763332
1022.698	0.00798054
1022.855	0.0096949
1023.013	0.00871064
1023.17	0.00685002
1023.327	0.00655209
1023.484	0.00725243
1023.641	0.00505197
1023.798	0.0087609
1023.956	0.00673955
1024.113	0.00950554
1024.27	0.00769277
1024.427	0.0080015
1024.584	0.00594873
1024.741	0.00335549
1024.898	-0.00004054
1025.055	0.00124475
1025.212	0.00188226
1025.369	0.00421276
1025.525	0.00611654
1025.682	0.00900664
1025.839	0.01157749
1025.996	0.0098446
1026.153	0.01172081
1026.31	0.0079025
1026.466	0.00481117
1026.623	0.00370369
1026.78	0.00136673
1026.937	0.00413215
1027.093	0.00623239
1027.25	0.00467022
1027.407	0.00506831
1027.563	0.00873514
1027.72	0.01410861
1027.876	0.01533636
1028.033	0.01674804
1028.19	0.01808854
1028.346	0.01528366
1028.503	0.01923925
1028.659	0.01617092
1028.816	0.01171721
1028.972	0.00692511
1029.128	0.0056617
1029.285	0.00674513
1029.441	0.01390474
1029.598	0.00814031
1029.754	0.01286994
1029.91	0.01724186
1030.067	0.02192644
1030.223	0.02053604
1030.379	0.01848334
1030.535	0.01605303
1030.691	0.02149752
1030.848	0.02019644
1031.004	0.01538346
1031.16	0.01506973
1031.316	0.01025195
1031.472	0.01470756
1031.628	0.01269068
1031.784	0.00952412
1031.94	0.0144363
1032.096	0.01215345
1032.252	0.01428417
1032.408	0.01973425
1032.564	0.01684191
1032.72	0.01451735
1032.876	0.01367421
1033.032	0.00651533
1033.188	0.00424302
1033.344	0.00123878
1033.5	-0.00100018
1033.655	-0.00216446
1033.811	-0.00265937
1033.967	-0.00505642
