Data from 0_1_mm_pl_30pc_Absorbance__0__18-51-21-419.txt Node

Date: Wed Mar 01 18:51:21 CET 2023
User: Ange
Spectrometer: FLMT08341
Trigger mode: 0
Integration Time (sec): 1.000000E-2
Scans to average: 400
Electric dark correction enabled: true
Nonlinearity correction enabled: false
Boxcar width: 3
XAxis mode: Wavelengths
Number of Pixels in Spectrum: 3648
>>>>>Begin Spectral Data<<<<<
345.271	-0.01473267
345.487	-0.01620737
345.704	-0.02773483
345.921	-0.0315723
346.137	-0.04958867
346.354	-0.06253832
346.571	-0.0893265
346.787	-0.29706807
347.004	0.22388514
347.22	0.12205711
347.437	0.28095957
347.653	0.03755045
347.87	0.21692004
348.086	-0
348.303	-0
348.519	0.04245138
348.736	0.02929913
348.952	0.03035446
349.169	0.03050073
349.385	0.03046798
349.601	0.02540348
349.818	0.02617573
350.034	0.02719566
350.251	0.02865988
350.467	0.03104816
350.683	0.02813218
350.9	0.02674625
351.116	0.02941213
351.332	0.03031323
351.549	0.0310763
351.765	0.03173454
351.981	0.03010678
352.197	0.03141464
352.414	0.03245366
352.63	0.03187507
352.846	0.03253083
353.062	0.03261749
353.278	0.03322037
353.495	0.03374076
353.711	0.03611517
353.927	0.03591054
354.143	0.03655881
354.359	0.03541973
354.575	0.03616107
354.792	0.0363375
355.008	0.03663734
355.224	0.03495986
355.44	0.03561297
355.656	0.0351363
355.872	0.03557049
356.088	0.03568177
356.304	0.0352547
356.52	0.03572391
356.736	0.03570809
356.952	0.03573784
357.168	0.03575184
357.384	0.0366562
357.6	0.03690221
357.816	0.03839361
358.032	0.03876232
358.248	0.04067467
358.464	0.04056996
358.679	0.04246899
358.895	0.04178263
359.111	0.04269381
359.327	0.04148625
359.543	0.04269565
359.759	0.04133608
359.974	0.04252818
360.19	0.04227082
360.406	0.04271939
360.622	0.0430463
360.838	0.04296374
361.053	0.04225601
361.269	0.04362896
361.485	0.04305882
361.701	0.04369039
361.916	0.04431879
362.132	0.0434887
362.348	0.04371588
362.563	0.04415321
362.779	0.04343907
362.995	0.0445432
363.21	0.04558945
363.426	0.04437567
363.641	0.0454095
363.857	0.04567429
364.073	0.04671806
364.288	0.04622086
364.504	0.0458414
364.719	0.04500125
364.935	0.04637478
365.15	0.04602373
365.366	0.04659581
365.581	0.04531471
365.797	0.0463966
366.012	0.04603539
366.228	0.04578942
366.443	0.04621096
366.658	0.04573823
366.874	0.04471926
367.089	0.04534555
367.305	0.04599997
367.52	0.04639569
367.735	0.04692376
367.951	0.0461744
368.166	0.04749261
368.381	0.04981717
368.597	0.05101691
368.812	0.05120498
369.027	0.0519404
369.243	0.05175093
369.458	0.05317488
369.673	0.05241519
369.888	0.05146777
370.104	0.05124754
370.319	0.05166806
370.534	0.05195328
370.749	0.05242634
370.964	0.05284669
371.179	0.0537746
371.395	0.05400889
371.61	0.0535782
371.825	0.05351885
372.04	0.05425092
372.255	0.05417625
372.47	0.05358025
372.685	0.05305972
372.9	0.0533542
373.115	0.0540508
373.33	0.05395835
373.545	0.05439276
373.76	0.05512448
373.975	0.05541435
374.19	0.05536814
374.405	0.05595588
374.62	0.05554533
374.835	0.05675138
375.05	0.05625526
375.265	0.05644717
375.48	0.05670702
375.695	0.05796495
375.91	0.05729175
376.125	0.05765967
376.339	0.05685668
376.554	0.05598007
376.769	0.05504482
376.984	0.05525711
377.199	0.05500222
377.414	0.05561241
377.628	0.05625109
377.843	0.05670364
378.058	0.05742042
378.273	0.05873163
378.487	0.05884042
378.702	0.05918651
378.917	0.05922252
379.131	0.0588254
379.346	0.05814991
379.561	0.05856039
379.775	0.05814759
379.99	0.05831698
380.205	0.05875331
380.419	0.05876332
380.634	0.05865105
380.848	0.05986331
381.063	0.06031427
381.278	0.06106703
381.492	0.06141459
381.707	0.06158137
381.921	0.06181343
382.136	0.0630253
382.35	0.06266088
382.565	0.06253091
382.779	0.06231607
382.994	0.0630133
383.208	0.06266964
383.422	0.06309357
383.637	0.06260919
383.851	0.06316897
384.066	0.06378408
384.28	0.06454365
384.494	0.0646204
384.709	0.06546599
384.923	0.06632521
385.137	0.0666427
385.352	0.06608043
385.566	0.06622119
385.78	0.06564898
385.995	0.065388
386.209	0.06496122
386.423	0.06468684
386.637	0.06513927
386.852	0.06558202
387.066	0.06555403
387.28	0.06578221
387.494	0.06628368
387.708	0.06696847
387.923	0.06695421
388.137	0.06671371
388.351	0.06715739
388.565	0.06748887
388.779	0.06807087
388.993	0.06847987
389.207	0.06802531
389.421	0.06832145
389.635	0.06827712
389.85	0.06846348
390.064	0.06864686
390.278	0.06837268
390.492	0.06840012
390.706	0.06897546
390.92	0.06904045
391.134	0.06988165
391.348	0.06995686
391.561	0.06975822
391.775	0.07005036
391.989	0.06995267
392.203	0.07027806
392.417	0.07027613
392.631	0.07033465
392.845	0.07076284
393.059	0.07138923
393.273	0.07162024
393.486	0.0714014
393.7	0.07104205
393.914	0.07170218
394.128	0.07144787
394.342	0.07115527
394.555	0.0711238
394.769	0.07076015
394.983	0.07118113
395.197	0.07175922
395.41	0.07164865
395.624	0.07199772
395.838	0.07205172
396.051	0.07202521
396.265	0.07267795
396.479	0.07294763
396.692	0.0726121
396.906	0.07277103
397.12	0.07305316
397.333	0.07369629
397.547	0.07405697
397.76	0.07426085
397.974	0.07443442
398.187	0.07494498
398.401	0.07503498
398.614	0.07506254
398.828	0.07485003
399.041	0.07481432
399.255	0.0748765
399.468	0.07503268
399.682	0.07496464
399.895	0.07511331
400.109	0.07490368
400.322	0.07482633
400.536	0.07473473
400.749	0.07500539
400.962	0.07490474
401.176	0.07476699
401.389	0.07475131
401.602	0.07482222
401.816	0.07482432
402.029	0.07503829
402.242	0.07462133
402.456	0.07459248
402.669	0.07486542
402.882	0.07470974
403.095	0.07460738
403.309	0.07512366
403.522	0.07509832
403.735	0.0749392
403.948	0.07504691
404.161	0.07516623
404.375	0.07525494
404.588	0.07562216
404.801	0.07520505
405.014	0.07534301
405.227	0.07605788
405.44	0.0761851
405.653	0.07619721
405.866	0.07661091
406.079	0.07662259
406.293	0.07674618
406.506	0.07677642
406.719	0.07648106
406.932	0.07607425
407.145	0.07585374
407.358	0.07553195
407.571	0.07555387
407.784	0.07579872
407.996	0.07584204
408.209	0.07550001
408.422	0.07567793
408.635	0.07555061
408.848	0.0757792
409.061	0.07547908
409.274	0.074809
409.487	0.07461889
409.7	0.07501902
409.912	0.07487211
410.125	0.07517822
410.338	0.074871
410.551	0.07496926
410.764	0.07544737
410.976	0.07557262
411.189	0.07531439
411.402	0.075262
411.615	0.07525273
411.827	0.07512302
412.04	0.07508882
412.253	0.07494981
412.465	0.07454877
412.678	0.07456791
412.891	0.0745799
413.103	0.0743918
413.316	0.07422391
413.529	0.07415097
413.741	0.07437888
413.954	0.07448178
414.166	0.07444732
414.379	0.07429035
414.591	0.07391365
414.804	0.0737891
415.016	0.07377504
415.229	0.07330196
415.441	0.07295934
415.654	0.07274956
415.866	0.07270645
416.079	0.07284425
416.291	0.07276764
416.504	0.07258028
416.716	0.07248059
416.928	0.07231975
417.141	0.07226793
417.353	0.0719594
417.566	0.07165932
417.778	0.07162124
417.99	0.07126539
418.203	0.07081417
418.415	0.07061511
418.627	0.07054869
418.839	0.07055142
419.052	0.07039562
419.264	0.07047381
419.476	0.07052395
419.688	0.07056512
419.901	0.07074748
420.113	0.07047639
420.325	0.07043814
420.537	0.07042656
420.749	0.07006949
420.961	0.06984293
421.174	0.06997199
421.386	0.06985745
421.598	0.06945412
421.81	0.06928032
422.022	0.0689343
422.234	0.06876158
422.446	0.06865333
422.658	0.06822413
422.87	0.06798728
423.082	0.06786656
423.294	0.06756382
423.506	0.06753957
423.718	0.06724695
423.93	0.06692389
424.142	0.06671226
424.354	0.06640242
424.566	0.06631584
424.778	0.0661129
424.99	0.06590363
425.202	0.06593202
425.414	0.065625
425.625	0.06537094
425.837	0.06496999
426.049	0.06477889
426.261	0.06454664
426.473	0.06439146
426.684	0.06399939
426.896	0.06414132
427.108	0.06408013
427.32	0.06406469
427.531	0.06387509
427.743	0.06374093
427.955	0.06346737
428.167	0.06314298
428.378	0.06261856
428.59	0.06222103
428.802	0.06187061
429.013	0.06147579
429.225	0.06102564
429.436	0.06079487
429.648	0.06058329
429.86	0.06042723
430.071	0.06026948
430.283	0.06016798
430.494	0.05972601
430.706	0.05965114
430.917	0.059441
431.129	0.05922444
431.34	0.0590477
431.552	0.05903898
431.763	0.05871441
431.975	0.05862898
432.186	0.05823188
432.398	0.05788328
432.609	0.05765726
432.821	0.0571847
433.032	0.05675291
433.243	0.05642621
433.455	0.05632884
433.666	0.05617304
433.877	0.0560158
434.089	0.05559542
434.3	0.0555521
434.511	0.05529609
434.723	0.05512024
434.934	0.05508291
435.145	0.05479791
435.356	0.05442004
435.568	0.0542362
435.779	0.05405806
435.99	0.05394829
436.201	0.05378958
436.412	0.05333613
436.624	0.05314878
436.835	0.05297216
437.046	0.05289521
437.257	0.05241166
437.468	0.05221129
437.679	0.05193422
437.89	0.05161792
438.101	0.05136631
438.312	0.05112346
438.523	0.05081648
438.734	0.05069854
438.945	0.05025246
439.156	0.04986514
439.367	0.04960511
439.578	0.04942008
439.789	0.04902132
440	0.04868149
440.211	0.04817784
440.422	0.04774765
440.633	0.04742238
440.844	0.04715898
441.055	0.04664346
441.266	0.04647333
441.477	0.04614073
441.687	0.04591744
441.898	0.04572888
442.109	0.04550292
442.32	0.04508319
442.531	0.0448314
442.741	0.04444911
442.952	0.04416388
443.163	0.04400689
443.374	0.04363151
443.584	0.04330903
443.795	0.04314571
444.006	0.04291551
444.216	0.04254251
444.427	0.04222813
444.638	0.0417265
444.848	0.04141455
445.059	0.0410324
445.27	0.04069446
445.48	0.04028014
445.691	0.03994975
445.901	0.03982255
446.112	0.03964614
446.323	0.03941335
446.533	0.03913085
446.744	0.0388321
446.954	0.03852805
447.165	0.03823671
447.375	0.03776898
447.586	0.03741173
447.796	0.03702111
448.006	0.03678172
448.217	0.03644873
448.427	0.03626019
448.638	0.03612839
448.848	0.03575725
449.058	0.03543662
449.269	0.03522284
449.479	0.03499556
449.689	0.03467169
449.9	0.03442337
450.11	0.03423206
450.32	0.03407151
450.531	0.03379097
450.741	0.03359667
450.951	0.03340583
451.161	0.0332386
451.372	0.03289151
451.582	0.03262471
451.792	0.03236941
452.002	0.03226773
452.212	0.03190072
452.422	0.03165397
452.633	0.03142858
452.843	0.03114425
453.053	0.03071211
453.263	0.03061631
453.473	0.03027339
453.683	0.03001406
453.893	0.029661
454.103	0.02939258
454.313	0.0292031
454.523	0.02903238
454.733	0.02870207
454.943	0.0285303
455.153	0.02848207
455.363	0.02823435
455.573	0.02789425
455.783	0.02778954
455.993	0.02757657
456.203	0.02745737
456.413	0.02721309
456.623	0.02682737
456.833	0.02657522
457.042	0.02642931
457.252	0.02604882
457.462	0.02575755
457.672	0.02536113
457.882	0.02525025
458.091	0.02508159
458.301	0.02493347
458.511	0.02463107
458.721	0.02450769
458.931	0.02445104
459.14	0.02435265
459.35	0.02411223
459.56	0.0239146
459.769	0.02373191
459.979	0.02367571
460.189	0.02349595
460.398	0.02327967
460.608	0.02307095
460.817	0.02290849
461.027	0.02274589
461.237	0.0225532
461.446	0.02236211
461.656	0.0220812
461.865	0.0217159
462.075	0.02155765
462.284	0.02132943
462.494	0.02104885
462.703	0.02073615
462.913	0.0204314
463.122	0.02037714
463.332	0.02027095
463.541	0.02000655
463.751	0.01980055
463.96	0.01974769
464.169	0.01968708
464.379	0.01965808
464.588	0.0194474
464.797	0.01935995
465.007	0.01923046
465.216	0.01914905
465.425	0.01904222
465.635	0.01883175
465.844	0.01870931
466.053	0.0185371
466.263	0.01832918
466.472	0.01817957
466.681	0.01796935
466.89	0.01774779
467.099	0.01766509
467.309	0.01746305
467.518	0.01734213
467.727	0.0171849
467.936	0.01712171
468.145	0.01694758
468.354	0.01677832
468.563	0.01669979
468.772	0.01659952
468.982	0.01648995
469.191	0.01640984
469.4	0.01622509
469.609	0.01622051
469.818	0.01610998
470.027	0.01585977
470.236	0.01573394
470.445	0.01555791
470.654	0.01537302
470.863	0.01516691
471.072	0.01503844
471.28	0.01489199
471.489	0.0149365
471.698	0.01470922
471.907	0.01462208
472.116	0.01455775
472.325	0.01443419
472.534	0.01418509
472.743	0.0140794
472.951	0.01395375
473.16	0.01394188
473.369	0.01383844
473.578	0.01375726
473.786	0.01387745
473.995	0.01386273
474.204	0.0138004
474.413	0.01365637
474.621	0.01359183
474.83	0.01346183
475.039	0.01340943
475.247	0.01318705
475.456	0.01319337
475.665	0.01307798
475.873	0.01304117
476.082	0.01299129
476.291	0.01306281
476.499	0.01290358
476.708	0.01285203
476.916	0.01277283
477.125	0.01278157
477.333	0.01270629
477.542	0.01254415
477.75	0.01247468
477.959	0.01243743
478.167	0.01241885
478.376	0.01223952
478.584	0.01216029
478.793	0.0120593
479.001	0.01208125
479.209	0.01189517
479.418	0.01184859
479.626	0.01177399
479.834	0.01182482
480.043	0.01177891
480.251	0.01167727
480.459	0.01163623
480.668	0.01165582
480.876	0.01161971
481.084	0.01163573
481.293	0.01156948
481.501	0.01151064
481.709	0.01148626
481.917	0.01146152
482.125	0.0113898
482.334	0.01135986
482.542	0.01125171
482.75	0.01118564
482.958	0.01123769
483.166	0.0112659
483.374	0.01123448
483.583	0.01121582
483.791	0.01113621
483.999	0.01112904
484.207	0.01109935
484.415	0.01099687
484.623	0.01090576
484.831	0.01084284
485.039	0.0108089
485.247	0.01085447
485.455	0.01079921
485.663	0.01076052
485.871	0.01072689
486.079	0.01064582
486.287	0.01062263
486.495	0.0106891
486.702	0.01064382
486.91	0.01060104
487.118	0.01059643
487.326	0.01061451
487.534	0.01074131
487.742	0.01072896
487.95	0.01064192
488.157	0.01065934
488.365	0.01071657
488.573	0.0106696
488.781	0.01070633
488.988	0.01062569
489.196	0.01063581
489.404	0.01061866
489.612	0.01058804
489.819	0.01058578
490.027	0.01071394
490.235	0.0106927
490.442	0.01072855
490.65	0.0107399
490.857	0.01077306
491.065	0.0107657
491.273	0.010766
491.48	0.01070135
491.688	0.01071955
491.895	0.01072318
492.103	0.0106528
492.31	0.01062731
492.518	0.01061409
492.725	0.01054906
492.933	0.01052625
493.14	0.01051662
493.348	0.01050502
493.555	0.01058313
493.763	0.01065436
493.97	0.01062094
494.177	0.0106854
494.385	0.01074704
494.592	0.01075177
494.8	0.01076497
495.007	0.01071748
495.214	0.01071857
495.422	0.01083532
495.629	0.01086582
495.836	0.0108117
496.043	0.01082857
496.251	0.01083705
496.458	0.01086955
496.665	0.0108826
496.872	0.010853
497.08	0.01091674
497.287	0.0109989
497.494	0.01099447
497.701	0.01098869
497.908	0.01103802
498.115	0.01103934
498.322	0.0111274
498.53	0.0111142
498.737	0.0111863
498.944	0.01120887
499.151	0.01132607
499.358	0.01136348
499.565	0.01140803
499.772	0.01140596
499.979	0.01140459
500.186	0.01137974
500.393	0.01139747
500.6	0.01143359
500.807	0.01148886
501.014	0.01156381
501.221	0.01160578
501.427	0.01167499
501.634	0.01174619
501.841	0.01183181
502.048	0.01183692
502.255	0.011849
502.462	0.01184654
502.669	0.01189046
502.875	0.0119275
503.082	0.01191178
503.289	0.01194917
503.496	0.01197654
503.702	0.01204806
503.909	0.01209801
504.116	0.01214201
504.323	0.01219443
504.529	0.01228474
504.736	0.01228241
504.943	0.01239138
505.149	0.0124436
505.356	0.01249409
505.563	0.01255434
505.769	0.01259669
505.976	0.0126212
506.182	0.01268929
506.389	0.01272611
506.595	0.0127408
506.802	0.0127813
507.008	0.0127699
507.215	0.01273505
507.421	0.01277099
507.628	0.01284757
507.834	0.01288396
508.041	0.01295652
508.247	0.01298707
508.454	0.01309307
508.66	0.01322271
508.866	0.01330297
509.073	0.01334497
509.279	0.01341443
509.486	0.01341722
509.692	0.01351099
509.898	0.01358744
510.105	0.01368319
510.311	0.01378663
510.517	0.01388108
510.723	0.01396686
510.93	0.01413335
511.136	0.01420061
511.342	0.01421331
511.548	0.01424757
511.754	0.01425071
511.961	0.01428358
512.167	0.01430018
512.373	0.01430111
512.579	0.01441049
512.785	0.01451395
512.991	0.01457573
513.197	0.01465102
513.404	0.01472561
513.61	0.01480939
513.816	0.01487868
514.022	0.01484501
514.228	0.01490542
514.434	0.01496783
514.64	0.0150304
514.846	0.01510429
515.052	0.01513668
515.258	0.01515506
515.464	0.01532219
515.669	0.01543967
515.875	0.01554661
516.081	0.01564102
516.287	0.01573158
516.493	0.01583687
516.699	0.01594468
516.905	0.01601029
517.111	0.01605043
517.316	0.01605724
517.522	0.01612868
517.728	0.01621996
517.934	0.01626555
518.139	0.01639383
518.345	0.01640777
518.551	0.01650921
518.757	0.01662854
518.962	0.0167099
519.168	0.01675869
519.374	0.01686937
519.579	0.0169882
519.785	0.01712411
519.991	0.01716747
520.196	0.01725438
520.402	0.01735919
520.607	0.01743112
520.813	0.01750028
521.018	0.01752784
521.224	0.01756344
521.429	0.0176752
521.635	0.01774696
521.84	0.01780886
522.046	0.01790267
522.251	0.01803528
522.457	0.01809324
522.662	0.01820122
522.868	0.01825903
523.073	0.01835624
523.279	0.01840129
523.484	0.01849145
523.689	0.01852966
523.895	0.0186607
524.1	0.01873401
524.305	0.01885137
524.511	0.01891947
524.716	0.0190394
524.921	0.01910525
525.126	0.01919286
525.332	0.01927183
525.537	0.01933204
525.742	0.01939091
525.947	0.01951011
526.153	0.01957935
526.358	0.01967916
526.563	0.01981479
526.768	0.01991345
526.973	0.0200413
527.178	0.02016428
527.383	0.02026529
527.588	0.02038083
527.794	0.02048484
527.999	0.02061171
528.204	0.02071772
528.409	0.02085785
528.614	0.02090158
528.819	0.02099189
529.024	0.02110853
529.229	0.02120598
529.434	0.02123628
529.639	0.02127031
529.843	0.02136821
530.048	0.02150996
530.253	0.02164684
530.458	0.02176602
530.663	0.02193347
530.868	0.02205871
531.073	0.02222191
531.278	0.02227777
531.482	0.02234869
531.687	0.02240893
531.892	0.02251595
532.097	0.02259411
532.302	0.02267427
532.506	0.02277445
532.711	0.02293373
532.916	0.0230846
533.12	0.02319191
533.325	0.02328926
533.53	0.02337988
533.734	0.02349924
533.939	0.02362412
534.144	0.02374867
534.348	0.02383736
534.553	0.02395285
534.757	0.02408678
534.962	0.02421121
535.167	0.02434794
535.371	0.02445604
535.576	0.02453719
535.78	0.02467385
535.985	0.02481257
536.189	0.02491314
536.394	0.02503806
536.598	0.02511873
536.803	0.0252215
537.007	0.02533708
537.211	0.02545232
537.416	0.0255111
537.62	0.02559933
537.825	0.0256976
538.029	0.02587744
538.233	0.02598759
538.438	0.02612595
538.642	0.02624136
538.846	0.02639766
539.05	0.02653245
539.255	0.02664513
539.459	0.02671195
539.663	0.0268143
539.867	0.02687894
540.072	0.02697855
540.276	0.02713999
540.48	0.02726187
540.684	0.02732455
540.888	0.02744412
541.092	0.02754585
541.297	0.02767052
541.501	0.02781798
541.705	0.02785404
541.909	0.02795486
542.113	0.02815399
542.317	0.02829486
542.521	0.02844846
542.725	0.02860176
542.929	0.02874066
543.133	0.02894325
543.337	0.02910156
543.541	0.02923274
543.745	0.02935037
543.949	0.02948757
544.153	0.02960813
544.357	0.02972529
544.56	0.02985588
544.764	0.02995021
544.968	0.03007662
545.172	0.03022502
545.376	0.0303591
545.58	0.03045993
545.783	0.03057435
545.987	0.03068924
546.191	0.03085477
546.395	0.03099336
546.598	0.03110179
546.802	0.03126946
547.006	0.03143299
547.21	0.03158488
547.413	0.03170148
547.617	0.03180982
547.821	0.03191077
548.024	0.03205002
548.228	0.03216826
548.431	0.03232011
548.635	0.03240508
548.839	0.03251593
549.042	0.03264524
549.246	0.03278022
549.449	0.03289551
549.653	0.03302873
549.856	0.03317527
550.06	0.03336442
550.263	0.03355802
550.467	0.03371546
550.67	0.03385972
550.874	0.03403496
551.077	0.0341803
551.28	0.03429758
551.484	0.03438801
551.687	0.03448731
551.891	0.03464699
552.094	0.03478519
552.297	0.03493087
552.501	0.03509089
552.704	0.03523923
552.907	0.03543319
553.11	0.03559004
553.314	0.03571674
553.517	0.03583561
553.72	0.03595611
553.923	0.03602563
554.127	0.03616183
554.33	0.03628223
554.533	0.0364738
554.736	0.0365665
554.939	0.03672026
555.142	0.03682552
555.345	0.03696112
555.549	0.03708154
555.752	0.03718101
555.955	0.037228
556.158	0.03742643
556.361	0.03756073
556.564	0.03772792
556.767	0.03786331
556.97	0.0380137
557.173	0.03814665
557.376	0.03832326
557.579	0.03841083
557.782	0.03858146
557.984	0.03869582
558.187	0.03891003
558.39	0.03902218
558.593	0.03922629
558.796	0.03939036
558.999	0.03955542
559.202	0.03970857
559.404	0.03986027
559.607	0.03997093
559.81	0.04016407
560.013	0.04026496
560.216	0.0403931
560.418	0.04051648
560.621	0.04065374
560.824	0.04078422
561.026	0.04093799
561.229	0.04107927
561.432	0.04123085
561.634	0.04136282
561.837	0.04153734
562.04	0.04164488
562.242	0.04187153
562.445	0.04200379
562.647	0.04213687
562.85	0.04232933
563.053	0.04249438
563.255	0.04261187
563.458	0.0428034
563.66	0.04292209
563.863	0.04307788
564.065	0.04318813
564.268	0.04330262
564.47	0.0434235
564.672	0.04360676
564.875	0.04373981
565.077	0.04386556
565.28	0.04399728
565.482	0.04420034
565.684	0.04432912
565.887	0.04444811
566.089	0.04455955
566.291	0.04470075
566.494	0.04483583
566.696	0.04498485
566.898	0.04508075
567.1	0.0452402
567.303	0.045398
567.505	0.04554312
567.707	0.04564071
567.909	0.04576738
568.111	0.04592761
568.314	0.04612566
568.516	0.04624095
568.718	0.04638154
568.92	0.04653465
569.122	0.04673873
569.324	0.04695271
569.526	0.0470774
569.728	0.04716928
569.93	0.04733351
570.132	0.04748212
570.334	0.04763486
570.536	0.04769691
570.738	0.04772916
570.94	0.04782315
571.142	0.04800189
571.344	0.04811203
571.546	0.04826622
571.748	0.04840017
571.95	0.04857288
572.152	0.04875355
572.354	0.04891432
572.555	0.04905641
572.757	0.04925241
572.959	0.04941009
573.161	0.04956843
573.363	0.04971374
573.564	0.04988431
573.766	0.0500495
573.968	0.05023164
574.17	0.05030309
574.371	0.0504221
574.573	0.05052465
574.775	0.05065397
574.976	0.05079005
575.178	0.05089865
575.38	0.05095621
575.581	0.0511234
575.783	0.05127096
575.985	0.05144135
576.186	0.05162064
576.388	0.05175467
576.589	0.05192544
576.791	0.0521091
576.992	0.05226909
577.194	0.05240613
577.395	0.05252318
577.597	0.05263393
577.798	0.052796
578	0.05291616
578.201	0.05307137
578.402	0.05316056
578.604	0.0532482
578.805	0.05338629
579.007	0.05349437
579.208	0.05362513
579.409	0.05374481
579.611	0.05383999
579.812	0.05401782
580.013	0.05422688
580.215	0.05435116
580.416	0.05454
580.617	0.05466697
580.818	0.0547986
581.019	0.05492791
581.221	0.05505702
581.422	0.05519362
581.623	0.05536869
581.824	0.05546964
582.025	0.05556313
582.226	0.05569949
582.428	0.05586113
582.629	0.05599933
582.83	0.0560939
583.031	0.05620083
583.232	0.05632653
583.433	0.05652458
583.634	0.05666401
583.835	0.05676318
584.036	0.05688244
584.237	0.0570373
584.438	0.05714205
584.639	0.05729107
584.84	0.05737496
585.041	0.05749548
585.242	0.05761647
585.442	0.05771035
585.643	0.05779222
585.844	0.05794269
586.045	0.05803359
586.246	0.05817052
586.447	0.05827728
586.647	0.05838482
586.848	0.05851606
587.049	0.05867065
587.25	0.05873064
587.45	0.05886604
587.651	0.05894652
587.852	0.05906211
588.053	0.0592199
588.253	0.05933943
588.454	0.05943197
588.655	0.05956969
588.855	0.0596541
589.056	0.05976324
589.256	0.05988067
589.457	0.05997449
589.658	0.06008152
589.858	0.06019512
590.059	0.06033473
590.259	0.06050006
590.46	0.06065816
590.66	0.06080508
590.861	0.06091611
591.061	0.06103935
591.262	0.06116074
591.462	0.06130392
591.662	0.06136655
591.863	0.0614541
592.063	0.06156416
592.264	0.06163237
592.464	0.06174407
592.664	0.06182284
592.865	0.06192242
593.065	0.06202863
593.265	0.06212453
593.465	0.06216779
593.666	0.06227493
593.866	0.06240169
594.066	0.06254947
594.266	0.06260634
594.467	0.06269262
594.667	0.06279719
594.867	0.06294684
595.067	0.06309618
595.267	0.06315481
595.467	0.06321495
595.668	0.06334443
595.868	0.06348421
596.068	0.06358156
596.268	0.06365471
596.468	0.06373997
596.668	0.06384626
596.868	0.06395355
597.068	0.0640118
597.268	0.06413743
597.468	0.06420682
597.668	0.06430178
597.868	0.0643782
598.068	0.06445484
598.268	0.06454101
598.467	0.06467988
598.667	0.06470011
598.867	0.06476425
599.067	0.06485359
599.267	0.06491071
599.467	0.0649928
599.667	0.06502773
599.866	0.06508547
600.066	0.06518586
600.266	0.06526803
600.466	0.06533461
600.665	0.06540974
600.865	0.0655173
601.065	0.06558565
601.264	0.06561935
601.464	0.06565713
601.664	0.06576855
601.863	0.06583843
602.063	0.06594133
602.263	0.06595862
602.462	0.06605714
602.662	0.06613797
602.861	0.0662393
603.061	0.0662855
603.26	0.06635615
603.46	0.06637131
603.659	0.06648407
603.859	0.06653358
604.058	0.06660939
604.258	0.06666758
604.457	0.06674839
604.657	0.06676605
604.856	0.06682942
605.056	0.06684918
605.255	0.06689859
605.454	0.06694069
605.654	0.06693359
605.853	0.06695184
606.052	0.0670554
606.252	0.0671253
606.451	0.06716452
606.65	0.06725193
606.849	0.06725824
607.049	0.06736521
607.248	0.0674863
607.447	0.06752304
607.646	0.0675787
607.845	0.0676686
608.045	0.06769652
608.244	0.06783236
608.443	0.06787583
608.642	0.06791349
608.841	0.06797131
609.04	0.06800378
609.239	0.06807979
609.438	0.06809783
609.637	0.06813548
609.836	0.06820259
610.035	0.06823776
610.234	0.06829545
610.433	0.06834462
610.632	0.06834175
610.831	0.06844673
611.03	0.0684922
611.229	0.06854602
611.428	0.06854744
611.627	0.06857782
611.826	0.06862947
612.025	0.06871333
612.224	0.06868739
612.422	0.06869378
612.621	0.06871471
612.82	0.06878885
613.019	0.0688273
613.218	0.06891303
613.416	0.06889169
613.615	0.06903772
613.814	0.06913982
614.012	0.06914318
614.211	0.06912367
614.41	0.06916997
614.608	0.06915863
614.807	0.06920301
615.006	0.06919721
615.204	0.06916618
615.403	0.06927773
615.602	0.06937331
615.8	0.06942514
615.999	0.06946311
616.197	0.06951021
616.396	0.06956924
616.594	0.06962618
616.793	0.06962648
616.991	0.069613
617.19	0.06956217
617.388	0.06963501
617.586	0.06966385
617.785	0.06961771
617.983	0.06962608
618.182	0.0696338
618.38	0.069686
618.578	0.06975131
618.777	0.06977259
618.975	0.06979839
619.173	0.06987263
619.372	0.06987853
619.57	0.06988471
619.768	0.06989624
619.966	0.06993131
620.165	0.06988451
620.363	0.06991748
620.561	0.06984944
620.759	0.06987921
620.957	0.06990509
621.155	0.06994241
621.354	0.06991262
621.552	0.06997353
621.75	0.06995037
621.948	0.07000808
622.146	0.07003565
622.344	0.07007597
622.542	0.07006387
622.74	0.07011268
622.938	0.07003879
623.136	0.07010482
623.334	0.07014207
623.532	0.07009757
623.73	0.07008369
623.928	0.07012191
624.126	0.07008619
624.324	0.07016044
624.522	0.07010343
624.719	0.07007363
624.917	0.07010092
625.115	0.07008265
625.313	0.07008221
625.511	0.07014355
625.708	0.07006078
625.906	0.07007154
626.104	0.07008461
626.302	0.07011655
626.499	0.07013687
626.697	0.07010533
626.895	0.070021
627.093	0.07006287
627.29	0.07008714
627.488	0.07014352
627.686	0.07015225
627.883	0.07013875
628.081	0.07010831
628.278	0.07023024
628.476	0.0702069
628.673	0.0701857
628.871	0.07013186
629.068	0.07011315
629.266	0.07012921
629.463	0.07012371
629.661	0.07007666
629.858	0.07008562
630.056	0.07006778
630.253	0.07004474
630.451	0.07004941
630.648	0.06999168
630.845	0.07000199
631.043	0.06993572
631.24	0.06995503
631.438	0.06998741
631.635	0.06997565
631.832	0.06988795
632.029	0.06989958
632.227	0.06986568
632.424	0.06985595
632.621	0.06983622
632.818	0.06975268
633.016	0.06972787
633.213	0.06974001
633.41	0.06971684
633.607	0.06970606
633.804	0.06971978
634.001	0.06967381
634.199	0.06971833
634.396	0.06973278
634.593	0.06971201
634.79	0.06972329
634.987	0.06977332
635.184	0.06976497
635.381	0.06979353
635.578	0.06977372
635.775	0.06973354
635.972	0.06971178
636.169	0.0696639
636.366	0.06958797
636.563	0.06952958
636.76	0.06943864
636.957	0.06938112
637.153	0.06933923
637.35	0.06935499
637.547	0.06932155
637.744	0.06931332
637.941	0.06929758
638.138	0.06932835
638.334	0.06928358
638.531	0.06930204
638.728	0.06922453
638.925	0.06925648
639.121	0.06919416
639.318	0.06921909
639.515	0.06915786
639.711	0.06918024
639.908	0.06912275
640.105	0.0690934
640.301	0.06902962
640.498	0.06898091
640.695	0.06891164
640.891	0.06889531
641.088	0.06882279
641.284	0.06880135
641.481	0.0687694
641.677	0.06868574
641.874	0.06867625
642.07	0.06865424
642.267	0.06860217
642.463	0.06856851
642.66	0.06853364
642.856	0.06851203
643.053	0.06846828
643.249	0.06844561
643.445	0.06840247
643.642	0.06838956
643.838	0.06841243
644.034	0.06837486
644.231	0.06831529
644.427	0.06827825
644.623	0.06820836
644.82	0.06816813
645.016	0.06814041
645.212	0.06801307
645.408	0.0679263
645.604	0.06794621
645.801	0.06794899
645.997	0.06794606
646.193	0.06784996
646.389	0.06781722
646.585	0.06778868
646.781	0.06777455
646.977	0.06771782
647.173	0.06765121
647.37	0.06760073
647.566	0.06764044
647.762	0.06754567
647.958	0.06753941
648.154	0.06750096
648.35	0.06743403
648.546	0.06739077
648.742	0.06736821
648.937	0.06723051
649.133	0.06724393
649.329	0.06720842
649.525	0.06717684
649.721	0.06711408
649.917	0.06714306
650.113	0.06704554
650.309	0.06706968
650.504	0.0669573
650.7	0.0668739
650.896	0.06682772
651.092	0.06680257
651.287	0.06668725
651.483	0.06668159
651.679	0.06660564
651.875	0.06662884
652.07	0.06656629
652.266	0.06651719
652.462	0.06646901
652.657	0.06642985
652.853	0.06634915
653.048	0.06630143
653.244	0.06618535
653.44	0.0661122
653.635	0.06602093
653.831	0.06597744
654.026	0.06595568
654.222	0.06590602
654.417	0.0658971
654.613	0.06588159
654.808	0.06587687
655.004	0.06588384
655.199	0.06582751
655.394	0.06578315
655.59	0.06580843
655.785	0.06571392
655.98	0.06565618
656.176	0.06560753
656.371	0.06557156
656.566	0.06554145
656.762	0.06542752
656.957	0.06532023
657.152	0.0652564
657.348	0.06521257
657.543	0.06514187
657.738	0.06509206
657.933	0.06496533
658.128	0.0649159
658.324	0.06485048
658.519	0.06479732
658.714	0.06474595
658.909	0.06470306
659.104	0.06461301
659.299	0.0646199
659.494	0.06459915
659.689	0.06453009
659.884	0.0645164
660.079	0.06444123
660.274	0.06440857
660.469	0.06435349
660.664	0.06428992
660.859	0.06421688
661.054	0.06421649
661.249	0.06414492
661.444	0.06411104
661.639	0.06403424
661.834	0.06396425
662.029	0.06389966
662.224	0.0638412
662.418	0.06372186
662.613	0.0636637
662.808	0.0635924
663.003	0.06353579
663.198	0.06349517
663.392	0.06342865
663.587	0.06343319
663.782	0.06343136
663.977	0.06337505
664.171	0.06331333
664.366	0.06329509
664.561	0.06327455
664.755	0.06330544
664.95	0.06326627
665.144	0.06321343
665.339	0.0631982
665.534	0.06319494
665.728	0.06314928
665.923	0.06309119
666.117	0.0630074
666.312	0.0629125
666.506	0.06288788
666.701	0.06275356
666.895	0.0626589
667.09	0.06257788
667.284	0.06253324
667.479	0.0624186
667.673	0.06232652
667.867	0.0622474
668.062	0.06221667
668.256	0.06218418
668.45	0.06216743
668.645	0.06209019
668.839	0.06210679
669.033	0.06211601
669.228	0.06206133
669.422	0.06209372
669.616	0.06205327
669.81	0.06198282
670.004	0.06191311
670.199	0.06182984
670.393	0.06175532
670.587	0.06168409
670.781	0.061557
670.975	0.0615101
671.169	0.06145868
671.363	0.06141526
671.558	0.06135371
671.752	0.06132295
671.946	0.06128724
672.14	0.06125137
672.334	0.06118052
672.528	0.06116312
672.722	0.06111184
672.916	0.06111493
673.11	0.06100818
673.304	0.06101797
673.497	0.06098183
673.691	0.06092945
673.885	0.06085015
674.079	0.06081727
674.273	0.0607009
674.467	0.06073504
674.661	0.06062073
674.854	0.06059539
675.048	0.0605701
675.242	0.06051793
675.436	0.06046329
675.629	0.0604571
675.823	0.06034042
676.017	0.06030142
676.211	0.06022626
676.404	0.06017273
676.598	0.06010586
676.792	0.06006611
676.985	0.06001875
677.179	0.06000577
677.372	0.05998782
677.566	0.05995484
677.76	0.05991326
677.953	0.05990489
678.147	0.05982362
678.34	0.05982739
678.534	0.05976302
678.727	0.05970056
678.921	0.05965355
679.114	0.05960724
679.307	0.05953999
679.501	0.05956985
679.694	0.05949137
679.888	0.05944031
680.081	0.05941312
680.274	0.05932965
680.468	0.05927481
680.661	0.05922923
680.854	0.05916947
681.048	0.05914053
681.241	0.05915039
681.434	0.05907728
681.627	0.05912283
681.821	0.05910652
682.014	0.05912411
682.207	0.05904653
682.4	0.0589657
682.593	0.05891385
682.786	0.05891828
682.98	0.05883325
683.173	0.0588145
683.366	0.05875991
683.559	0.05875443
683.752	0.05876722
683.945	0.05871685
684.138	0.05867417
684.331	0.05864371
684.524	0.05859383
684.717	0.05852148
684.91	0.05850723
685.103	0.05844343
685.296	0.05841681
685.489	0.05840224
685.682	0.05837071
685.874	0.05831498
686.067	0.05828957
686.26	0.05824347
686.453	0.05821288
686.646	0.05816585
686.839	0.0581487
687.031	0.05811708
687.224	0.05803444
687.417	0.0580259
687.61	0.05794931
687.802	0.05787139
687.995	0.05786782
688.188	0.05776872
688.38	0.05771299
688.573	0.05770025
688.766	0.05767419
688.958	0.05764436
689.151	0.05766119
689.343	0.05760213
689.536	0.05760412
689.729	0.05759309
689.921	0.05761825
690.114	0.05756111
690.306	0.05755328
690.499	0.05755134
690.691	0.05755221
690.884	0.05746265
691.076	0.05743491
691.268	0.05738392
691.461	0.05731536
691.653	0.05729181
691.846	0.05721648
692.038	0.05715872
692.23	0.05710585
692.423	0.05709528
692.615	0.0570612
692.807	0.05706242
692.999	0.05702798
693.192	0.05695854
693.384	0.05696223
693.576	0.05693073
693.768	0.05686269
693.961	0.05685134
694.153	0.05680956
694.345	0.05678456
694.537	0.05681693
694.729	0.05674665
694.921	0.05674037
695.113	0.05675515
695.305	0.05669914
695.498	0.0566821
695.69	0.05667785
695.882	0.05661883
696.074	0.05663221
696.266	0.05664719
696.458	0.05657234
696.65	0.05656894
696.842	0.05653065
697.033	0.05647966
697.225	0.0564348
697.417	0.05640842
697.609	0.0563855
697.801	0.05639433
697.993	0.05637802
698.185	0.05638167
698.376	0.05631868
698.568	0.0563081
698.76	0.05625959
698.952	0.05620597
699.144	0.05615942
699.335	0.056105
699.527	0.05607135
699.719	0.05609429
699.91	0.05609371
700.102	0.05607973
700.294	0.05609517
700.485	0.05607969
700.677	0.05607321
700.869	0.05605653
701.06	0.05604949
701.252	0.05603664
701.443	0.0560309
701.635	0.05598047
701.826	0.05597455
702.018	0.05591526
702.209	0.05591503
702.401	0.0558491
702.592	0.05585627
702.784	0.05580704
702.975	0.05582485
703.166	0.0558075
703.358	0.05582631
703.549	0.0557943
703.741	0.05582103
703.932	0.055776
704.123	0.05578222
704.315	0.05578064
704.506	0.05577062
704.697	0.0557779
704.888	0.05578527
705.08	0.05574951
705.271	0.05572656
705.462	0.05570751
705.653	0.05566797
705.844	0.05561707
706.035	0.05559522
706.227	0.05556467
706.418	0.05558224
706.609	0.05556476
706.8	0.05556068
706.991	0.05554602
707.182	0.05558528
707.373	0.05553738
707.564	0.05550259
707.755	0.05546311
707.946	0.05550341
708.137	0.0554806
708.328	0.05548201
708.519	0.05547223
708.71	0.05546611
708.901	0.05546099
709.092	0.05548573
709.283	0.05546439
709.473	0.05547198
709.664	0.05548519
709.855	0.05546398
710.046	0.05546315
710.237	0.05546321
710.427	0.05542254
710.618	0.05539584
710.809	0.05534611
711	0.05529819
711.19	0.05525171
711.381	0.05526819
711.572	0.05529428
711.762	0.05529191
711.953	0.05528548
712.144	0.05531335
712.334	0.05533342
712.525	0.05540931
712.715	0.05542371
712.906	0.05538651
713.097	0.05539207
713.287	0.05541485
713.478	0.05539893
713.668	0.05542451
713.859	0.05540479
714.049	0.05541478
714.239	0.05545882
714.43	0.0554434
714.62	0.05542451
714.811	0.05541676
715.001	0.05537349
715.191	0.05533104
715.382	0.0552927
715.572	0.05526136
715.762	0.05525057
715.953	0.0552123
716.143	0.0552261
716.333	0.05524542
716.523	0.05524565
716.714	0.05528408
716.904	0.05525874
717.094	0.05526751
717.284	0.05526688
717.474	0.05523504
717.664	0.05525671
717.855	0.05525567
718.045	0.05525362
718.235	0.05529417
718.425	0.05532069
718.615	0.05537769
718.805	0.05541444
718.995	0.05542304
719.185	0.05546146
719.375	0.05548151
719.565	0.0554456
719.755	0.05546572
719.945	0.0554264
720.135	0.05542861
720.325	0.05538867
720.515	0.05539103
720.704	0.05539373
720.894	0.05546936
721.084	0.0554767
721.274	0.05555742
721.464	0.05563919
721.654	0.05564678
721.843	0.05568173
722.033	0.05564479
722.223	0.05561168
722.413	0.05563746
722.602	0.05562852
722.792	0.05557055
722.982	0.05559108
723.171	0.0555489
723.361	0.05559234
723.55	0.05563708
723.74	0.05559709
723.93	0.05558214
724.119	0.0556439
724.309	0.0556564
724.498	0.05566159
724.688	0.05569215
724.877	0.05565705
725.067	0.05572558
725.256	0.05572377
725.446	0.05567152
725.635	0.05567347
725.825	0.05573168
726.014	0.05570093
726.203	0.0557004
726.393	0.05566459
726.582	0.05564675
726.771	0.05572633
726.961	0.0557538
727.15	0.0557539
727.339	0.05571027
727.529	0.05569743
727.718	0.05566791
727.907	0.0556915
728.096	0.05563084
728.286	0.05560933
728.475	0.05556668
728.664	0.05558444
728.853	0.05560489
729.042	0.05559559
729.231	0.05560754
729.42	0.05556488
729.609	0.05551576
729.799	0.05549305
729.988	0.05548014
730.177	0.05548122
730.366	0.05548699
730.555	0.05545916
730.744	0.0554707
730.933	0.0554919
731.122	0.0555122
731.31	0.05551085
731.499	0.05549311
731.688	0.05548466
731.877	0.05547375
732.066	0.05547794
732.255	0.05548037
732.444	0.05545751
732.632	0.05541915
732.821	0.05541298
733.01	0.05543038
733.199	0.05540265
733.388	0.05538035
733.576	0.05539487
733.765	0.05538824
733.954	0.05544282
734.142	0.05540672
734.331	0.05540596
734.52	0.0554377
734.708	0.05541553
734.897	0.05540322
735.086	0.0553922
735.274	0.05533525
735.463	0.05536122
735.651	0.05536541
735.84	0.05538808
736.028	0.05543012
736.217	0.05541819
736.405	0.05544924
736.594	0.0555185
736.782	0.0554948
736.971	0.05546313
737.159	0.05543394
737.347	0.05541111
737.536	0.05546048
737.724	0.05548007
737.912	0.05544523
738.101	0.05549262
738.289	0.05547404
738.477	0.05543834
738.666	0.05540888
738.854	0.05531772
739.042	0.05530104
739.23	0.05528643
739.418	0.05524395
739.607	0.05530056
739.795	0.05535313
739.983	0.05541386
740.171	0.05544898
740.359	0.05540478
740.547	0.05541702
740.735	0.05544299
740.923	0.05535946
741.112	0.0553411
741.3	0.05530072
741.488	0.05527635
741.676	0.05535714
741.864	0.05536862
742.052	0.05540544
742.239	0.05542008
742.427	0.05540412
742.615	0.05538314
742.803	0.05542811
742.991	0.05534013
743.179	0.05531217
743.367	0.05525801
743.555	0.0553259
743.742	0.05537892
743.93	0.05546294
744.118	0.05544859
744.306	0.055437
744.494	0.0554783
744.681	0.05547067
744.869	0.05541707
745.057	0.05535933
745.244	0.05534341
745.432	0.05534832
745.62	0.05544024
745.807	0.0554602
745.995	0.0554503
746.182	0.05547012
746.37	0.055501
746.558	0.05546518
746.745	0.05543473
746.933	0.05540728
747.12	0.05536028
747.308	0.05537191
747.495	0.05541204
747.683	0.0553627
747.87	0.05538597
748.057	0.05538987
748.245	0.05529559
748.432	0.05526757
748.62	0.05527826
748.807	0.05521571
748.994	0.05527444
749.182	0.05525032
749.369	0.05528354
749.556	0.0554125
749.743	0.05547335
749.931	0.05544647
750.118	0.05544532
750.305	0.05539861
750.492	0.0553335
750.68	0.05529976
750.867	0.05520092
751.054	0.05510964
751.241	0.05511197
751.428	0.05512451
751.615	0.05513894
751.802	0.05521864
751.989	0.05522921
752.176	0.05525453
752.363	0.05529407
752.55	0.0553003
752.737	0.05529045
752.924	0.0553139
753.111	0.05526431
753.298	0.05525312
753.485	0.05524728
753.672	0.05522602
753.859	0.055215
754.046	0.0551911
754.233	0.05511637
754.42	0.05513358
754.606	0.0550899
754.793	0.0550691
754.98	0.05504866
755.167	0.05507773
755.353	0.05513434
755.54	0.05517234
755.727	0.055184
755.914	0.05521847
756.1	0.05524272
756.287	0.05528328
756.474	0.05527635
756.66	0.05518918
756.847	0.05514233
757.033	0.0551021
757.22	0.05509775
757.407	0.05509384
757.593	0.05509066
757.78	0.05506527
757.966	0.05508947
758.153	0.05504612
758.339	0.05503216
758.526	0.05501448
758.712	0.05496223
758.898	0.05491226
759.085	0.05484951
759.271	0.0548451
759.458	0.05486568
759.644	0.05488247
759.83	0.05486715
760.017	0.0548992
760.203	0.05492719
760.389	0.05495817
760.576	0.0549116
760.762	0.05484008
760.948	0.05475439
761.134	0.05471119
761.32	0.05464844
761.507	0.05459267
761.693	0.05459676
761.879	0.05461424
762.065	0.05470444
762.251	0.05474326
762.437	0.05473498
762.623	0.05472838
762.809	0.05473859
762.995	0.05473185
763.181	0.05469184
763.367	0.05465939
763.553	0.05462426
763.739	0.05462051
763.925	0.0546204
764.111	0.05458356
764.297	0.05449889
764.483	0.05447192
764.669	0.05438564
764.855	0.05436246
765.041	0.05434378
765.227	0.05432802
765.412	0.05432372
765.598	0.05431599
765.784	0.05438967
765.97	0.0544788
766.156	0.05446535
766.341	0.05447889
766.527	0.05444511
766.713	0.05442789
766.898	0.05439597
767.084	0.05429268
767.27	0.05422989
767.455	0.0542027
767.641	0.05414525
767.827	0.05411461
768.012	0.05409757
768.198	0.0541073
768.383	0.05411326
768.569	0.05405381
768.754	0.05403039
768.94	0.05397951
769.125	0.05398228
769.311	0.05393268
769.496	0.05389808
769.682	0.05389179
769.867	0.05388604
770.052	0.05389806
770.238	0.05394336
770.423	0.05390538
770.608	0.05386337
770.794	0.05384562
770.979	0.05374303
771.164	0.05369738
771.35	0.05363224
771.535	0.05359638
771.72	0.0535503
771.905	0.05354324
772.09	0.05354718
772.276	0.05357135
772.461	0.05359616
772.646	0.05358727
772.831	0.05356015
773.016	0.0535102
773.201	0.05351381
773.386	0.05348073
773.571	0.05343916
773.756	0.05338141
773.941	0.05332439
774.126	0.05330301
774.311	0.05331099
774.496	0.05331872
774.681	0.05332431
774.866	0.05330163
775.051	0.05326215
775.236	0.05333858
775.421	0.05322946
775.606	0.05321047
775.791	0.0530903
775.976	0.05303772
776.16	0.05299531
776.345	0.05303961
776.53	0.05292067
776.715	0.05294333
776.899	0.05288247
777.084	0.05286253
777.269	0.05280654
777.454	0.05277812
777.638	0.05263704
777.823	0.05262674
778.008	0.05261233
778.192	0.05259868
778.377	0.05255291
778.561	0.05254592
778.746	0.05257188
778.931	0.05256233
779.115	0.05258663
779.3	0.05258767
779.484	0.05254231
779.669	0.05255178
779.853	0.05248399
780.037	0.05242879
780.222	0.05240357
780.406	0.05234823
780.591	0.05223903
780.775	0.05226589
780.959	0.05222503
781.144	0.05222127
781.328	0.05218335
781.512	0.05219665
781.697	0.05210564
781.881	0.05208977
782.065	0.0520356
782.249	0.05198868
782.434	0.05197366
782.618	0.05193961
782.802	0.05187047
782.986	0.05188539
783.17	0.05182926
783.354	0.05177628
783.539	0.05171854
783.723	0.05157487
783.907	0.05155324
784.091	0.05150765
784.275	0.05141915
784.459	0.0513975
784.643	0.0513709
784.827	0.05143395
785.011	0.05145964
785.195	0.05143867
785.379	0.05139634
785.563	0.0513274
785.747	0.05125857
785.93	0.05116625
786.114	0.05105495
786.298	0.05101045
786.482	0.05090123
786.666	0.05093804
786.85	0.05094696
787.033	0.05094267
787.217	0.05097281
787.401	0.05094237
787.585	0.05093942
787.768	0.05090006
787.952	0.05077536
788.136	0.05067296
788.319	0.05060187
788.503	0.0504883
788.687	0.05039999
788.87	0.05031988
789.054	0.05032974
789.237	0.05036096
789.421	0.05037247
789.605	0.05037124
789.788	0.05036076
789.972	0.05033394
790.155	0.05029835
790.338	0.05021071
790.522	0.05006861
790.705	0.04998095
790.889	0.04984752
791.072	0.04983442
791.256	0.0498051
791.439	0.04978498
791.622	0.04972201
791.806	0.04968813
791.989	0.04969753
792.172	0.04965074
792.355	0.04957309
792.539	0.0494912
792.722	0.04939943
792.905	0.0493606
793.088	0.049334
793.271	0.04929204
793.455	0.04925923
793.638	0.04918779
793.821	0.04921928
794.004	0.04915507
794.187	0.04917046
794.37	0.04912815
794.553	0.04904325
794.736	0.04903885
794.919	0.0489889
795.102	0.04886796
795.285	0.04886166
795.468	0.04872676
795.651	0.04863154
795.834	0.04861483
796.017	0.04858314
796.2	0.04853318
796.383	0.04846376
796.566	0.04838768
796.749	0.04833616
796.931	0.0483044
797.114	0.04823374
797.297	0.04813932
797.48	0.04807115
797.663	0.04806978
797.845	0.04799244
798.028	0.04796889
798.211	0.04793433
798.393	0.04790656
798.576	0.04790051
798.759	0.04787617
798.941	0.04782949
799.124	0.04780046
799.307	0.04775287
799.489	0.04770589
799.672	0.04766115
799.854	0.04761927
800.037	0.04760618
800.219	0.04752531
800.402	0.0474626
800.584	0.04739843
800.767	0.04733351
800.949	0.0471783
801.132	0.04705376
801.314	0.04696545
801.496	0.04686467
801.679	0.04682261
801.861	0.04675724
802.043	0.04670934
802.226	0.04673946
802.408	0.04668702
802.59	0.04665617
802.772	0.04662965
802.955	0.04657461
803.137	0.04653563
803.319	0.04646427
803.501	0.04635787
803.684	0.04624344
803.866	0.04613788
804.048	0.04607792
804.23	0.04602522
804.412	0.04593934
804.594	0.04589549
804.776	0.04587389
804.958	0.04586769
805.14	0.04584409
805.322	0.04580964
805.504	0.04572456
805.686	0.04567577
805.868	0.04561043
806.05	0.04550103
806.232	0.04545458
806.414	0.04537997
806.596	0.0452573
806.778	0.04513864
806.96	0.04511728
807.141	0.04496728
807.323	0.04496412
807.505	0.04490701
807.687	0.0448052
807.869	0.04480467
808.05	0.0448391
808.232	0.04474254
808.414	0.04475402
808.595	0.04471723
808.777	0.04459172
808.959	0.04451514
809.14	0.04443435
809.322	0.04433964
809.504	0.04425702
809.685	0.04421109
809.867	0.04414436
810.048	0.04412782
810.23	0.04411756
810.411	0.04406443
810.593	0.04396711
810.774	0.04388473
810.956	0.0438418
811.137	0.04373461
811.319	0.04373859
811.5	0.04370838
811.681	0.04367015
811.863	0.04365354
812.044	0.0436989
812.225	0.04359568
812.407	0.04350514
812.588	0.04339255
812.769	0.04326649
812.951	0.04315601
813.132	0.04307345
813.313	0.04288151
813.494	0.0427191
813.675	0.0426957
813.857	0.04262693
814.038	0.04255596
814.219	0.04253052
814.4	0.04248212
814.581	0.04249461
814.762	0.04257493
814.943	0.0424545
815.124	0.04240005
815.305	0.042346
815.486	0.04224165
815.667	0.04214442
815.848	0.04204673
816.029	0.04194535
816.21	0.04190481
816.391	0.04186931
816.572	0.04189081
816.753	0.04190663
816.934	0.04188069
817.115	0.04181624
817.295	0.04178539
817.476	0.04167492
817.657	0.04155493
817.838	0.04142054
818.019	0.04126156
818.199	0.04114781
818.38	0.04098787
818.561	0.04081853
818.741	0.04079316
818.922	0.04076939
819.103	0.04069507
819.283	0.04060454
819.464	0.04052842
819.645	0.04051758
819.825	0.04050832
820.006	0.04047121
820.186	0.04036993
820.367	0.04029928
820.547	0.04029188
820.728	0.04024091
820.908	0.04020197
821.089	0.04017312
821.269	0.04009473
821.45	0.04004977
821.63	0.04002496
821.81	0.04000265
821.991	0.03994175
822.171	0.03983869
822.351	0.03974274
822.532	0.03962217
822.712	0.03956475
822.892	0.0394417
823.072	0.03931011
823.253	0.03918273
823.433	0.03913638
823.613	0.03904421
823.793	0.03901665
823.973	0.03892353
824.154	0.03886984
824.334	0.03878119
824.514	0.03874698
824.694	0.0386599
824.874	0.03858825
825.054	0.03842011
825.234	0.03834401
825.414	0.03822918
825.594	0.03815094
825.774	0.03809605
825.954	0.03810006
826.134	0.03810966
826.314	0.03816511
826.494	0.03812881
826.674	0.03813079
826.854	0.03811191
827.033	0.03806798
827.213	0.03788164
827.393	0.03767691
827.573	0.03754173
827.753	0.03737513
827.932	0.03723767
828.112	0.03714771
828.292	0.03704267
828.472	0.03703503
828.651	0.03700313
828.831	0.03697395
829.011	0.03697916
829.19	0.0369614
829.37	0.03684129
829.549	0.03676753
829.729	0.03668456
829.909	0.03659382
830.088	0.03649107
830.268	0.03640173
830.447	0.03630385
830.627	0.03633207
830.806	0.03629475
830.986	0.03620578
831.165	0.03614332
831.344	0.03611148
831.524	0.03600717
831.703	0.03593027
831.883	0.0357787
832.062	0.03565237
832.241	0.03559047
832.421	0.03550603
832.6	0.03534991
832.779	0.03522742
832.958	0.03510711
833.138	0.03506948
833.317	0.03505254
833.496	0.03500026
833.675	0.0349279
833.854	0.03488329
834.034	0.03487279
834.213	0.03484182
834.392	0.0347009
834.571	0.03460382
834.75	0.03446396
834.929	0.03435733
835.108	0.03424727
835.287	0.03420154
835.466	0.03403962
835.645	0.03406892
835.824	0.03392834
836.003	0.03387747
836.182	0.03393279
836.361	0.03384852
836.54	0.033712
836.719	0.03367905
836.897	0.03349888
837.076	0.03347534
837.255	0.03335351
837.434	0.03318907
837.613	0.03317631
837.791	0.03310674
837.97	0.03305482
838.149	0.03302073
838.328	0.03290967
838.506	0.03287284
838.685	0.0328291
838.864	0.03275014
839.042	0.03269294
839.221	0.03265293
839.4	0.03253613
839.578	0.03245522
839.757	0.03238047
839.935	0.03222923
840.114	0.03209822
840.292	0.03198412
840.471	0.03194078
840.649	0.03190046
840.828	0.03185155
841.006	0.03180655
841.185	0.03177451
841.363	0.03171852
841.541	0.03166294
841.72	0.03152899
841.898	0.03143674
842.076	0.0313265
842.255	0.0312135
842.433	0.0311722
842.611	0.03107832
842.789	0.03101959
842.968	0.03092856
843.146	0.0308739
843.324	0.03083438
843.502	0.03083566
843.68	0.03073913
843.859	0.03075123
844.037	0.03060779
844.215	0.03049594
844.393	0.03039034
844.571	0.0303178
844.749	0.03018344
844.927	0.03013422
845.105	0.03004516
845.283	0.03006548
845.461	0.03011018
845.639	0.03005659
845.817	0.03000153
845.995	0.02997999
846.173	0.02992698
846.351	0.02984048
846.529	0.02974396
846.706	0.0295633
846.884	0.02948038
847.062	0.02934711
847.24	0.02926792
847.418	0.0291381
847.595	0.02907427
847.773	0.02904831
847.951	0.02902659
848.129	0.0290439
848.306	0.02899523
848.484	0.02892975
848.662	0.02887174
848.839	0.02881437
849.017	0.02870502
849.194	0.02862672
849.372	0.02852034
849.549	0.02843187
849.727	0.02828606
849.905	0.02817903
850.082	0.02809217
850.26	0.02805297
850.437	0.02797886
850.614	0.02789157
850.792	0.02788135
850.969	0.02786026
851.147	0.02785102
851.324	0.02778376
851.501	0.02763868
851.679	0.02748665
851.856	0.02734988
852.033	0.0272974
852.211	0.02711675
852.388	0.02705149
852.565	0.02702519
852.742	0.0270045
852.92	0.02701354
853.097	0.02696004
853.274	0.02683618
853.451	0.02684658
853.628	0.02677595
853.805	0.02667013
853.982	0.02662096
854.159	0.02650038
854.336	0.02647321
854.514	0.02635854
854.691	0.02629745
854.868	0.02615719
855.045	0.02601445
855.221	0.02588863
855.398	0.02586093
855.575	0.02575668
855.752	0.02572297
855.929	0.02566395
856.106	0.0256305
856.283	0.02555084
856.46	0.02549173
856.637	0.02549602
856.813	0.02539735
856.99	0.02532878
857.167	0.02526222
857.344	0.02522934
857.52	0.02522302
857.697	0.02511803
857.874	0.02496259
858.05	0.02491027
858.227	0.02481288
858.404	0.02473981
858.58	0.02457677
858.757	0.02451318
858.933	0.02448995
859.11	0.02440629
859.287	0.02432258
859.463	0.02431948
859.64	0.0242532
859.816	0.02423364
859.993	0.02408592
860.169	0.02394378
860.345	0.02382084
860.522	0.02376077
860.698	0.02356076
860.875	0.02347815
861.051	0.02339215
861.227	0.02329623
861.404	0.02329183
861.58	0.0233018
861.756	0.02324587
861.932	0.02316356
862.109	0.02301946
862.285	0.02300328
862.461	0.02302009
862.637	0.02286359
862.813	0.02281352
862.99	0.02277587
863.166	0.02277456
863.342	0.0227567
863.518	0.02263468
863.694	0.02254516
863.87	0.0225442
864.046	0.02249601
864.222	0.02244528
864.398	0.02250958
864.574	0.0224919
864.75	0.02247471
864.926	0.02239913
865.102	0.02240006
865.278	0.02227466
865.454	0.02216255
865.63	0.02202712
865.805	0.02192558
865.981	0.02189016
866.157	0.02189282
866.333	0.02181444
866.509	0.02183737
866.684	0.0218095
866.86	0.02170918
867.036	0.02167289
867.212	0.02155645
867.387	0.02145219
867.563	0.02132982
867.739	0.02114898
867.914	0.02099773
868.09	0.02097099
868.265	0.02086568
868.441	0.02074627
868.617	0.02068668
868.792	0.02062669
868.968	0.02075697
869.143	0.02078673
869.319	0.02070723
869.494	0.02074345
869.67	0.02076867
869.845	0.02071597
870.02	0.0207174
870.196	0.02049776
870.371	0.02035483
870.546	0.02026861
870.722	0.02015154
870.897	0.01999274
871.072	0.01997125
871.248	0.01985533
871.423	0.01976474
871.598	0.01969441
871.773	0.01957381
871.949	0.01943731
872.124	0.01954271
872.299	0.01944861
872.474	0.01942887
872.649	0.01935585
872.824	0.01930606
872.999	0.01936445
873.174	0.0192641
873.349	0.01900953
873.524	0.01888319
873.699	0.01877192
873.874	0.01869087
874.049	0.01863853
874.224	0.01857882
874.399	0.01869437
874.574	0.01866835
874.749	0.01873371
874.924	0.01877594
875.099	0.01872041
875.274	0.01871808
875.449	0.01856356
875.623	0.0183655
875.798	0.01820714
875.973	0.01798167
876.148	0.01777516
876.322	0.0177342
876.497	0.01768773
876.672	0.01768819
876.846	0.01766479
877.021	0.01764968
877.196	0.01769237
877.37	0.0178267
877.545	0.01785143
877.72	0.01783452
877.894	0.01785666
878.069	0.01784737
878.243	0.01787957
878.418	0.01773299
878.592	0.01743949
878.767	0.01739009
878.941	0.01722079
879.116	0.01703145
879.29	0.01687656
879.464	0.01680425
879.639	0.01683045
879.813	0.01686742
879.987	0.01681495
880.162	0.01682695
880.336	0.01691051
880.51	0.01688667
880.685	0.01688061
880.859	0.01670852
881.033	0.01659394
881.207	0.01647949
881.381	0.01633326
881.556	0.01614573
881.73	0.0160744
881.904	0.0159736
882.078	0.01599258
882.252	0.01600839
882.426	0.01595043
882.6	0.01612851
882.774	0.01617821
882.948	0.01616367
883.122	0.0161828
883.296	0.0161283
883.47	0.01604263
883.644	0.01597169
883.818	0.01568711
883.992	0.01562301
884.166	0.01557197
884.34	0.0154494
884.514	0.01541725
884.687	0.01530436
884.861	0.01539855
885.035	0.0154471
885.209	0.01536598
885.382	0.01534301
885.556	0.01542557
885.73	0.0153642
885.904	0.01543858
886.077	0.01525476
886.251	0.01518862
886.425	0.01506833
886.598	0.01492819
886.772	0.01473292
886.945	0.01475103
887.119	0.01456039
887.292	0.0145184
887.466	0.01440212
887.64	0.01440572
887.813	0.0144238
887.986	0.01441145
888.16	0.01440682
888.333	0.01449218
888.507	0.01449958
888.68	0.01452767
888.854	0.01450591
889.027	0.01448202
889.2	0.0143686
889.374	0.01420907
889.547	0.01403015
889.72	0.0139343
889.893	0.01375383
890.067	0.01366949
890.24	0.01356211
890.413	0.01355719
890.586	0.01346361
890.759	0.01349889
890.933	0.01354745
891.106	0.01360642
891.279	0.01358794
891.452	0.01362296
891.625	0.0135533
891.798	0.01355798
891.971	0.01347677
892.144	0.01328674
892.317	0.01316533
892.49	0.0130211
892.663	0.01292879
892.836	0.01290914
893.009	0.01279077
893.182	0.01281532
893.355	0.0128781
893.527	0.01295432
893.7	0.01297412
893.873	0.01296606
894.046	0.01300317
894.219	0.01299085
894.391	0.01288612
894.564	0.01272907
894.737	0.01248922
894.91	0.01239688
895.082	0.01223796
895.255	0.01207868
895.428	0.01195984
895.6	0.01185401
895.773	0.01181654
895.945	0.01185887
896.118	0.01186259
896.291	0.0119175
896.463	0.01190127
896.636	0.01194291
896.808	0.01202639
896.981	0.01210297
897.153	0.01212626
897.326	0.01200014
897.498	0.01192231
897.67	0.01176769
897.843	0.01164911
898.015	0.01153173
898.187	0.01134677
898.36	0.01127422
898.532	0.01134235
898.704	0.01121013
898.877	0.01129617
899.049	0.01134266
899.221	0.01144796
899.393	0.0114621
899.566	0.01138663
899.738	0.01135127
899.91	0.01136494
900.082	0.01134
900.254	0.01125284
900.426	0.01098234
900.598	0.01082212
900.77	0.01073025
900.942	0.01061943
901.114	0.01052282
901.286	0.01037145
901.458	0.01033402
901.63	0.01040024
901.802	0.01050529
901.974	0.01055634
902.146	0.01059038
902.318	0.01073932
902.49	0.01084826
902.662	0.01089066
902.834	0.01082169
903.005	0.01076081
903.177	0.01067949
903.349	0.01052575
903.521	0.01032036
903.693	0.0101377
903.864	0.0099024
904.036	0.00983859
904.208	0.00971014
904.379	0.00967318
904.551	0.00976724
904.723	0.00986481
904.894	0.00994798
905.066	0.01006505
905.237	0.01015299
905.409	0.01023622
905.58	0.0103305
905.752	0.01023838
905.923	0.01011596
906.095	0.01007779
906.266	0.01001273
906.438	0.00989824
906.609	0.00978541
906.78	0.00964331
906.952	0.009597
907.123	0.00965404
907.295	0.00950993
907.466	0.00942959
907.637	0.0093245
907.808	0.00932136
907.98	0.00932305
908.151	0.00928986
908.322	0.00923737
908.493	0.00925404
908.665	0.00928561
908.836	0.00931856
909.007	0.00936738
909.178	0.0092954
909.349	0.00926417
909.52	0.00902535
909.691	0.00883419
909.862	0.00877469
910.033	0.00870362
910.204	0.00868161
910.375	0.00872058
910.546	0.00875584
910.717	0.0089712
910.888	0.00911712
911.059	0.00909776
911.23	0.00909731
911.401	0.00906968
911.572	0.00904468
911.742	0.00889286
911.913	0.00875598
912.084	0.00872622
912.255	0.00864859
912.426	0.00846985
912.596	0.00825834
912.767	0.00808169
912.938	0.00801957
913.108	0.00795775
913.279	0.00784537
913.45	0.00784525
913.62	0.00785082
913.791	0.00790114
913.962	0.00790713
914.132	0.00794268
914.303	0.00799052
914.473	0.00806706
914.644	0.00805504
914.814	0.008121
914.985	0.00806632
915.155	0.00805374
915.326	0.00793418
915.496	0.00779847
915.666	0.00770671
915.837	0.00756836
916.007	0.00748806
916.177	0.00737891
916.348	0.00731511
916.518	0.00735864
916.688	0.00731276
916.858	0.00727586
917.029	0.00734725
917.199	0.00744284
917.369	0.00748982
917.539	0.00754221
917.709	0.00753818
917.88	0.00746431
918.05	0.00738527
918.22	0.00731207
918.39	0.00726187
918.56	0.00721816
918.73	0.00707946
918.9	0.00683634
919.07	0.00676812
919.24	0.00684572
919.41	0.00693748
919.58	0.00692482
919.75	0.00686157
919.92	0.00688791
920.09	0.0070134
920.26	0.00713942
920.429	0.00706906
920.599	0.00693953
920.769	0.00683337
920.939	0.00676933
921.109	0.00665079
921.278	0.00661782
921.448	0.00662251
921.618	0.00651904
921.787	0.00637315
921.957	0.00624478
922.127	0.006268
922.296	0.00640409
922.466	0.00634963
922.636	0.00633005
922.805	0.00633765
922.975	0.00634336
923.144	0.00641323
923.314	0.00642491
923.483	0.00631318
923.653	0.00641013
923.822	0.00632589
923.992	0.00637658
924.161	0.00640298
924.331	0.0062935
924.5	0.00632044
924.669	0.00618829
924.839	0.00603095
925.008	0.00594993
925.177	0.00585213
925.347	0.0058143
925.516	0.00588324
925.685	0.00588484
925.854	0.00594344
926.023	0.00600376
926.193	0.00595369
926.362	0.00586923
926.531	0.00591201
926.7	0.00593953
926.869	0.00575423
927.038	0.00578089
927.207	0.00566547
927.376	0.00577847
927.545	0.00580572
927.715	0.00581594
927.884	0.00569444
928.052	0.00574481
928.221	0.00561258
928.39	0.00559269
928.559	0.00549433
928.728	0.00549403
928.897	0.00549911
929.066	0.00558652
929.235	0.0055849
929.404	0.00561582
929.572	0.00561062
929.741	0.00564583
929.91	0.00556949
930.079	0.00555309
930.247	0.00546421
930.416	0.00540801
930.585	0.00529725
930.753	0.00524028
930.922	0.00519036
931.091	0.00524035
931.259	0.0051991
931.428	0.0051471
931.596	0.00521321
931.765	0.00535609
931.934	0.00531215
932.102	0.00531354
932.27	0.00514939
932.439	0.00517453
932.607	0.00533742
932.776	0.00515121
932.944	0.00496277
933.113	0.00496457
933.281	0.00485614
933.449	0.00489215
933.618	0.00448996
933.786	0.00420505
933.954	0.0042343
934.123	0.00425512
934.291	0.00432182
934.459	0.00440927
934.627	0.00456273
934.795	0.00477564
934.964	0.00483264
935.132	0.0048057
935.3	0.0047541
935.468	0.00483813
935.636	0.00482939
935.804	0.00481035
935.972	0.00505342
936.14	0.00516312
936.308	0.00517841
936.476	0.00546538
936.644	0.00543686
936.812	0.00556121
936.98	0.00554103
937.148	0.0054434
937.316	0.00546716
937.484	0.00530021
937.652	0.00546359
937.82	0.00540278
937.987	0.00525327
938.155	0.00525576
938.323	0.00549962
938.491	0.00535461
938.658	0.00557458
938.826	0.00510235
938.994	0.00543865
939.162	0.0054017
939.329	0.00556761
939.497	0.00516162
939.665	0.00554012
939.832	0.00588756
940	0.00601778
940.167	0.00588961
940.335	0.00602951
940.502	0.00595796
940.67	0.00562694
940.837	0.0055031
941.005	0.00507597
941.172	0.00516443
941.34	0.00511166
941.507	0.00466974
941.674	0.00459059
941.842	0.00472755
942.009	0.00506257
942.177	0.00569066
942.344	0.00578945
942.511	0.00618823
942.678	0.00547224
942.846	0.00602759
943.013	0.00669744
943.18	0.00675475
943.347	0.00645798
943.514	0.00711183
943.682	0.00675041
943.849	0.0084814
944.016	0.00736282
944.183	0.00723216
944.35	0.0072518
944.517	0.00750873
944.684	0.00670282
944.851	0.00603874
945.018	0.0052128
945.185	0.00552134
945.352	0.00637484
945.519	0.00595899
945.686	0.00601723
945.853	0.00575051
946.02	0.00645599
946.187	0.00589638
946.353	0.00595395
946.52	0.00494843
946.687	0.00472043
946.854	0.00470489
947.021	0.00556808
947.187	0.00533899
947.354	0.00616208
947.521	0.00556494
947.687	0.00557692
947.854	0.00549389
948.021	0.00475206
948.187	0.00493482
948.354	0.00491644
948.52	0.00434976
948.687	0.00464217
948.854	0.00484284
949.02	0.00464969
949.187	0.00558431
949.353	0.00494592
949.52	0.00500263
949.686	0.00504104
949.852	0.00495713
950.019	0.00451548
950.185	0.0052895
950.352	0.00501427
950.518	0.00500616
950.684	0.00424024
950.851	0.00416092
951.017	0.00458722
951.183	0.00436524
951.349	0.00349155
951.516	0.00316676
951.682	0.00288872
951.848	0.0035919
952.014	0.00293292
952.18	0.0022104
952.346	0.00257723
952.512	0.00310822
952.679	0.00299715
952.845	0.00310073
953.011	0.00260373
953.177	0.00378685
953.343	0.00446736
953.509	0.00439982
953.675	0.00415601
953.841	0.00405013
954.007	0.0042181
954.172	0.00476241
954.338	0.0043315
954.504	0.00422414
954.67	0.00395277
954.836	0.00345321
955.002	0.0036637
955.167	0.00336499
955.333	0.00282734
955.499	0.0030856
955.665	0.00283877
955.83	0.00266088
955.996	0.00331387
956.162	0.00305457
956.327	0.00332278
956.493	0.00363211
956.659	0.00330343
956.824	0.0031174
956.99	0.00315284
957.155	0.00283272
957.321	0.00290639
957.486	0.00266939
957.652	0.00238239
957.817	0.00175502
957.983	0.00221736
958.148	0.00231091
958.314	0.00176857
958.479	0.00146583
958.644	0.00155696
958.81	0.00173389
958.975	0.00212102
959.14	0.0016171
959.306	0.00177799
959.471	0.00205893
959.636	0.00230935
959.801	0.00223627
959.967	0.00206322
960.132	0.00203299
960.297	0.00246128
960.462	0.00249887
960.627	0.00236495
960.792	0.00215614
960.957	0.00228585
961.123	0.00181078
961.288	0.00214094
961.453	0.00208709
961.618	0.00185371
961.783	0.00187335
961.948	0.00199063
962.113	0.00160872
962.277	0.00185973
962.442	0.00164389
962.607	0.00136484
962.772	0.00130061
962.937	0.00190145
963.102	0.00190562
963.267	0.00196141
963.431	0.00220176
963.596	0.00225558
963.761	0.00230094
963.926	0.00215788
964.09	0.00172819
964.255	0.00160934
964.42	0.00160255
964.584	0.00147732
964.749	0.00169251
964.914	0.00139119
965.078	0.00182819
965.243	0.00174582
965.407	0.00163711
965.572	0.00172262
965.736	0.00167375
965.901	0.00136723
966.065	0.00174098
966.23	0.00156144
966.394	0.00167394
966.559	0.00199476
966.723	0.00216389
966.887	0.00248562
967.052	0.00298493
967.216	0.00277382
967.38	0.00252603
967.545	0.00216712
967.709	0.00174286
967.873	0.00161701
968.037	0.00130956
968.202	0.00112341
968.366	0.00127178
968.53	0.00136837
968.694	0.00161825
968.858	0.00189069
969.022	0.00193335
969.187	0.00232172
969.351	0.00232556
969.515	0.00214971
969.679	0.00199796
969.843	0.00235096
970.007	0.00241921
970.171	0.0021795
970.335	0.00186713
970.499	0.00138658
970.662	0.00153096
970.826	0.00158265
970.99	0.0015323
971.154	0.00144039
971.318	0.00154817
971.482	0.0014418
971.645	0.00149325
971.809	0.00116408
971.973	0.00141373
972.137	0.00107678
972.3	0.00113761
972.464	0.00097579
972.628	0.00105755
972.791	0.00132787
972.955	0.00130048
973.119	0.00157607
973.282	0.0014353
973.446	0.0015217
973.609	0.00191475
973.773	0.00225578
973.936	0.0022618
974.1	0.0023751
974.263	0.00200063
974.427	0.00202636
974.59	0.00195865
974.754	0.00199276
974.917	0.00169817
975.08	0.00155137
975.244	0.00157672
975.407	0.00136117
975.57	0.00145006
975.734	0.00138156
975.897	0.00141787
976.06	0.00097225
976.223	0.00089578
976.387	0.00103719
976.55	0.00097885
976.713	0.00133138
976.876	0.00156656
977.039	0.00082847
977.202	0.00108038
977.365	0.0010422
977.528	0.00094327
977.692	0.00131858
977.855	0.00093255
978.018	0.00032855
978.181	0.00047171
978.344	0.00053545
978.506	0.00063321
978.669	0.00043122
978.832	-0.00008283
978.995	-0.00018552
979.158	0.00037893
979.321	0.00095139
979.484	0.00127292
979.646	0.00126628
979.809	0.00153777
979.972	0.00177412
980.135	0.00206612
980.297	0.00170348
980.46	0.00119288
980.623	0.00094287
980.786	0.00090333
980.948	0.0005229
981.111	0.00070834
981.273	0.00085968
981.436	0.00115093
981.599	0.001358
981.761	0.00142068
981.924	0.00138019
982.086	0.0016772
982.249	0.00187478
982.411	0.00143438
982.573	0.00132709
982.736	0.00134036
982.898	0.00142408
983.061	0.00126755
983.223	0.00121169
983.385	0.00131991
983.548	0.00169002
983.71	0.00145548
983.872	0.0014382
984.034	0.00159936
984.197	0.00206066
984.359	0.00236766
984.521	0.002189
984.683	0.00213504
984.845	0.00219186
985.008	0.00184752
985.17	0.00170825
985.332	0.00157597
985.494	0.00169776
985.656	0.00164091
985.818	0.00102942
985.98	0.00098239
986.142	0.00191435
986.304	0.00162801
986.466	0.0015538
986.628	0.00079797
986.79	0.00040218
986.952	0.00100507
987.113	0.00098798
987.275	-0.00018169
987.437	-0.00051228
987.599	-0.00058323
987.761	-0.00055535
987.922	-0.0001726
988.084	-0.00033158
988.246	-0.00014127
988.408	0.0003834
988.569	0.00045782
988.731	0.00060916
988.893	0.00121546
989.054	0.00055707
989.216	0.00047663
989.377	0.00032551
989.539	0.00028591
989.701	0.00086934
989.862	0.00038726
990.024	0.00018089
990.185	0.00038109
990.347	0.00047152
990.508	0.00069982
990.669	0.00089268
990.831	0.00065702
990.992	0.00132976
991.154	0.0014397
991.315	0.00172966
991.476	0.00171199
991.638	0.0019634
991.799	0.0021791
991.96	0.00191019
992.121	0.00209183
992.283	0.00202412
992.444	0.0015844
992.605	0.00180008
992.766	0.00128737
992.927	0.00025206
993.088	0.00022868
993.249	-0.00054502
993.41	-0.00082014
993.572	-0.00054071
993.733	-0.00072599
993.894	-0.00093473
994.055	-0.000189
994.216	-0.00000684
994.376	0.00041401
994.537	0.00047419
994.698	0.00088352
994.859	0.00093444
995.02	0.00145533
995.181	0.00179605
995.342	0.00248166
995.503	0.00232428
995.663	0.0023302
995.824	0.0019586
995.985	0.00151512
996.146	0.00129189
996.306	0.00099042
996.467	0.00068604
996.628	0.0006531
996.788	0.00138207
996.949	0.00183017
997.11	0.0022674
997.27	0.00230167
997.431	0.00168145
997.591	0.00101848
997.752	0.00057784
997.912	0.0000574
998.073	-0.00064202
998.233	-0.00099818
998.394	-0.00118798
998.554	-0.00040196
998.714	0.00067088
998.875	0.00102681
999.035	0.0011184
999.196	0.00084493
999.356	0.00150114
999.516	0.00221619
999.676	0.00204114
999.837	0.00152447
999.997	0.0016987
1000.157	0.00113419
1000.317	0.00202707
1000.477	0.00132262
1000.638	0.00081045
1000.798	0.00146655
1000.958	0.00057476
1001.118	0.00013605
1001.278	0.0004918
1001.438	0.00053986
1001.598	-0.00004116
1001.758	0.0000701
1001.918	-0.00132468
1002.078	-0.00053896
1002.238	-0.00077736
1002.398	-0.00034562
1002.558	-0.00049716
1002.718	0.00068358
1002.878	0.00089248
1003.037	0.00176398
1003.197	0.00113252
1003.357	0.00188423
1003.517	0.00166715
1003.677	0.00114529
1003.836	0.00023444
1003.996	-0.00058417
1004.156	-0.00149227
1004.315	-0.0008785
1004.475	-0.00108066
1004.635	-0.00119575
1004.794	-0.00078054
1004.954	-0.00097631
1005.114	-0.00142664
1005.273	-0.00088953
1005.433	-0.00113944
1005.592	-0.00257005
1005.752	-0.00196677
1005.911	-0.00140232
1006.071	-0.00052302
1006.23	0.00029603
1006.389	0.00150312
1006.549	0.00148496
1006.708	0.00346588
1006.868	0.00260875
1007.027	0.00334382
1007.186	0.00304817
1007.345	0.00356758
1007.505	0.00371164
1007.664	0.00466382
1007.823	0.00453051
1007.982	0.00406699
1008.142	0.00194339
1008.301	0.00212826
1008.46	0.00139309
1008.619	-0.00038941
1008.778	-0.00082191
1008.937	-0.00083755
1009.096	0.00000042
1009.255	0.00135786
1009.414	0.00211419
1009.573	0.003333
1009.732	0.0046602
1009.891	0.00473541
1010.05	0.00340372
1010.209	0.00293001
1010.368	0.00200653
1010.527	0.00116072
1010.686	0.000315
1010.845	-0.00091934
1011.003	-0.00070971
1011.162	-0.00007605
1011.321	0.00000626
1011.48	-0.00010194
1011.638	-0.00032558
1011.797	-0.00078806
1011.956	-0.0004722
1012.115	-0.00049088
1012.273	0.00098488
1012.432	0.00298021
1012.59	0.00402453
1012.749	0.00269843
1012.908	0.00374196
1013.066	0.00303869
1013.225	0.0032819
1013.383	0.00298075
1013.542	0.00046916
1013.7	-0.00090868
1013.859	0.00164747
1014.017	0.001584
1014.175	0.00306332
1014.334	0.00152481
1014.492	-0.00048232
1014.65	0.00006056
1014.809	0.00182104
1014.967	0.0017553
1015.125	0.00266113
1015.284	0.00184705
1015.442	0.00287324
1015.6	0.00409737
1015.758	0.00517343
1015.916	0.00203525
1016.075	0.00034703
1016.233	-0.00119111
1016.391	0.0008373
1016.549	-0.00023779
1016.707	-0.00092036
1016.865	-0.00257369
1017.023	0.00072408
1017.181	0.00186697
1017.339	0.0021032
1017.497	-0.00059403
1017.655	0.00166869
1017.813	0.00231791
1017.971	0.00283007
1018.129	0.00207341
1018.286	0.00195379
1018.444	0.0014298
1018.602	0.00234136
1018.76	0.00092721
1018.918	-0.00001203
1019.075	0.00149856
1019.233	0.00200985
1019.391	0.00027709
1019.549	0.00209145
1019.706	0.00328197
1019.864	0.0041413
1020.022	0.00479005
1020.179	0.00311962
1020.337	0.00131706
1020.494	0.00359569
1020.652	0.00220706
1020.809	0.00050539
1020.967	0.00029496
1021.124	0.00039243
1021.282	0.00254599
1021.439	0.00295743
1021.597	0.00281329
1021.754	-0.00021387
1021.911	0.00059678
1022.069	0.001925
1022.226	-0.00022357
1022.384	-0.00218271
1022.541	0.0009134
1022.698	-0.00006101
1022.855	0.00543381
1023.013	0.00527693
1023.17	0.00171868
1023.327	0.00322218
1023.484	0.00628651
1023.641	0.00397632
1023.798	0.00974109
1023.956	0.00786091
1024.113	0.00833655
1024.27	0.00923918
1024.427	0.00995198
1024.584	0.0062378
1024.741	0.00641464
1024.898	0.00136217
1025.055	0.00223166
1025.212	0.00297062
1025.369	0.00500575
1025.525	0.00704472
1025.682	0.00649204
1025.839	0.00738764
1025.996	0.00688797
1026.153	0.00748514
1026.31	0.00408135
1026.466	0.00217205
1026.623	-0.00008599
1026.78	-0.00061126
1026.937	0.00086767
1027.093	0.00403209
1027.25	0.00322033
1027.407	0.00837623
1027.563	0.01014851
1027.72	0.01424128
1027.876	0.01678383
1028.033	0.01571316
1028.19	0.01481033
1028.346	0.01291825
1028.503	0.01377113
1028.659	0.01222988
1028.816	0.00968413
1028.972	0.01046109
1029.128	0.01124228
1029.285	0.01378876
1029.441	0.01500778
1029.598	0.00911189
1029.754	0.01446235
1029.91	0.0156179
1030.067	0.01558767
1030.223	0.01420538
1030.379	0.00567732
1030.535	0.0043372
1030.691	0.01177762
1030.848	0.00554566
1031.004	0.00534615
1031.16	0.00529229
1031.316	0.00243458
1031.472	0.00777894
1031.628	0.0116201
1031.784	0.00447671
1031.94	0.0071401
1032.096	0.00361349
1032.252	-0.0005007
1032.408	0.00269236
1032.564	-0.00001811
1032.72	-0.00016502
1032.876	0.00200359
1033.032	0.00550168
1033.188	0.00419477
1033.344	0.00274456
1033.5	-0.0027019
1033.655	0.00162669
1033.811	-0.0039027
1033.967	-0.0073591
