Data from 0_1_mm_pl_80pc_Absorbance__0__18-55-56-228.txt Node

Date: Wed Mar 01 18:55:56 CET 2023
User: Ange
Spectrometer: FLMT08341
Trigger mode: 0
Integration Time (sec): 1.000000E-2
Scans to average: 400
Electric dark correction enabled: true
Nonlinearity correction enabled: false
Boxcar width: 3
XAxis mode: Wavelengths
Number of Pixels in Spectrum: 3648
>>>>>Begin Spectral Data<<<<<
345.271	0.00549093
345.487	0.00904277
345.704	0.00798258
345.921	0.00605863
346.137	0.00619742
346.354	0.0017765
346.571	-0.00659822
346.787	0.09602447
347.004	-0.12776143
347.22	-0.10268638
347.437	-0.19568413
347.653	-0.31672654
347.87	0.12916754
348.086	0.09134778
348.303	-0
348.519	0.01134084
348.736	0.01739415
348.952	0.0166125
349.169	0.02388487
349.385	0.02952417
349.601	0.02957173
349.818	0.02798937
350.034	0.02727092
350.251	0.02708787
350.467	0.02840634
350.683	0.02540371
350.9	0.02354867
351.116	0.02508143
351.332	0.02471763
351.549	0.02565955
351.765	0.02768898
351.981	0.02773052
352.197	0.02876426
352.414	0.0309669
352.63	0.02970566
352.846	0.02956337
353.062	0.02909463
353.278	0.0281437
353.495	0.02939597
353.711	0.02958562
353.927	0.02938862
354.143	0.02886966
354.359	0.02802203
354.575	0.02767462
354.792	0.02785129
355.008	0.0268155
355.224	0.02655089
355.44	0.02603189
355.656	0.02645965
355.872	0.02698055
356.088	0.02746914
356.304	0.02673044
356.52	0.02657695
356.736	0.02709797
356.952	0.02574853
357.168	0.02533366
357.384	0.025052
357.6	0.02489399
357.816	0.02399185
358.032	0.02289882
358.248	0.02256083
358.464	0.02406357
358.679	0.02433366
358.895	0.02408915
359.111	0.02512829
359.327	0.02486028
359.543	0.02675272
359.759	0.02576686
359.974	0.02483178
360.19	0.02469392
360.406	0.02511237
360.622	0.02306714
360.838	0.02380231
361.053	0.02207135
361.269	0.02290168
361.485	0.02231269
361.701	0.02200521
361.916	0.02304146
362.132	0.02460434
362.348	0.0239765
362.563	0.02427781
362.779	0.02417284
362.995	0.02356438
363.21	0.02408196
363.426	0.02401263
363.641	0.02394703
363.857	0.02443164
364.073	0.02445472
364.288	0.02406186
364.504	0.02526164
364.719	0.02455134
364.935	0.02387689
365.15	0.02339206
365.366	0.02359378
365.581	0.02373429
365.797	0.02357001
366.012	0.0236893
366.228	0.02276104
366.443	0.0229163
366.658	0.02282055
366.874	0.02253728
367.089	0.02293481
367.305	0.02406184
367.52	0.02474336
367.735	0.0251517
367.951	0.02415875
368.166	0.02494305
368.381	0.02606775
368.597	0.02491503
368.812	0.02375889
369.027	0.02290881
369.243	0.02257125
369.458	0.02315648
369.673	0.02307912
369.888	0.02304859
370.104	0.02377795
370.319	0.02357231
370.534	0.02326318
370.749	0.02338413
370.964	0.02302836
371.179	0.02278141
371.395	0.02125142
371.61	0.02082973
371.825	0.02166002
372.04	0.02171657
372.255	0.02185897
372.47	0.02206671
372.685	0.02116429
372.9	0.02238657
373.115	0.02294049
373.33	0.02263334
373.545	0.0226663
373.76	0.02242451
373.975	0.02243461
374.19	0.02229422
374.405	0.02139915
374.62	0.02115942
374.835	0.02108046
375.05	0.02079068
375.265	0.02119648
375.48	0.02157577
375.695	0.02221084
375.91	0.02255348
376.125	0.02300096
376.339	0.02283873
376.554	0.02349529
376.769	0.02418562
376.984	0.0242218
377.199	0.02430557
377.414	0.02443313
377.628	0.02475171
377.843	0.024365
378.058	0.02381702
378.273	0.02319202
378.487	0.0223321
378.702	0.02258686
378.917	0.02225467
379.131	0.02106754
379.346	0.02151128
379.561	0.02176479
379.775	0.02176631
379.99	0.02200278
380.205	0.02225845
380.419	0.02235793
380.634	0.02219319
380.848	0.02230862
381.063	0.02273359
381.278	0.02272429
381.492	0.02290638
381.707	0.02241848
381.921	0.02223069
382.136	0.02252274
382.35	0.02215742
382.565	0.02180621
382.779	0.0218989
382.994	0.0220813
383.208	0.02225387
383.422	0.02201621
383.637	0.02245044
383.851	0.02299135
384.066	0.02296082
384.28	0.02290794
384.494	0.0227222
384.709	0.02258078
384.923	0.02332329
385.137	0.02316324
385.352	0.02283335
385.566	0.02290909
385.78	0.02267603
385.995	0.02321617
386.209	0.02304009
386.423	0.02272914
386.637	0.02253687
386.852	0.02210836
387.066	0.02219831
387.28	0.02283443
387.494	0.02252371
387.708	0.02217877
387.923	0.02218301
388.137	0.0219084
388.351	0.02234256
388.565	0.02223612
388.779	0.0217784
388.993	0.02199191
389.207	0.02228015
389.421	0.02227895
389.635	0.02278534
389.85	0.02249611
390.064	0.02218249
390.278	0.02222238
390.492	0.02204418
390.706	0.02188857
390.92	0.02161011
391.134	0.02205858
391.348	0.02239013
391.561	0.02272663
391.775	0.02265899
391.989	0.02263222
392.203	0.02309495
392.417	0.02350839
392.631	0.02309317
392.845	0.02274696
393.059	0.0220335
393.273	0.02229385
393.486	0.0221361
393.7	0.02178897
393.914	0.02159428
394.128	0.02179059
394.342	0.02212612
394.555	0.02251307
394.769	0.02218978
394.983	0.02240004
395.197	0.02231565
395.41	0.02273933
395.624	0.02265359
395.838	0.02263418
396.051	0.02289759
396.265	0.02286071
396.479	0.02310044
396.692	0.02340132
396.906	0.02320798
397.12	0.0231687
397.333	0.02328879
397.547	0.02331856
397.76	0.02358655
397.974	0.02357921
398.187	0.02341811
398.401	0.02342413
398.614	0.02357183
398.828	0.02348011
399.041	0.02369126
399.255	0.02376392
399.468	0.02347712
399.682	0.02363638
399.895	0.0236588
400.109	0.02336765
400.322	0.02339095
400.536	0.02301664
400.749	0.02301478
400.962	0.02306536
401.176	0.02308296
401.389	0.02310112
401.602	0.02291057
401.816	0.02305886
402.029	0.0232581
402.242	0.02381699
402.456	0.02374375
402.669	0.02357347
402.882	0.02324183
403.095	0.02335257
403.309	0.02327893
403.522	0.0234427
403.735	0.02253877
403.948	0.02253905
404.161	0.02256816
404.375	0.02297978
404.588	0.0230599
404.801	0.02290935
405.014	0.02255512
405.227	0.02284016
405.44	0.02286087
405.653	0.02267399
405.866	0.0223472
406.079	0.02243214
406.293	0.02250755
406.506	0.02265901
406.719	0.0226158
406.932	0.02261539
407.145	0.02282214
407.358	0.0231238
407.571	0.02319804
407.784	0.02331376
407.996	0.0234832
408.209	0.02364614
408.422	0.02382512
408.635	0.02377723
408.848	0.02342239
409.061	0.02286146
409.274	0.02248783
409.487	0.02221014
409.7	0.02206545
409.912	0.02182725
410.125	0.02151652
410.338	0.02162852
410.551	0.02212182
410.764	0.02221894
410.976	0.02232221
411.189	0.02226346
411.402	0.02214225
411.615	0.02244565
411.827	0.02231486
412.04	0.02226149
412.253	0.02213354
412.465	0.02186291
412.678	0.02189026
412.891	0.02213199
413.103	0.02202669
413.316	0.02232384
413.529	0.02203443
413.741	0.02210582
413.954	0.0221014
414.166	0.02186801
414.379	0.02169165
414.591	0.02152135
414.804	0.02117643
415.016	0.02108472
415.229	0.02104171
415.441	0.02089857
415.654	0.02097088
415.866	0.02109417
416.079	0.02136087
416.291	0.02140981
416.504	0.02173481
416.716	0.02151903
416.928	0.02170615
417.141	0.0217934
417.353	0.02131607
417.566	0.0210659
417.778	0.02107098
417.99	0.02095313
418.203	0.02093781
418.415	0.02064811
418.627	0.02056914
418.839	0.02083318
419.052	0.02087945
419.264	0.02078464
419.476	0.02069706
419.688	0.02081184
419.901	0.0209821
420.113	0.02093896
420.325	0.02091754
420.537	0.02070791
420.749	0.02070991
420.961	0.02067217
421.174	0.0205497
421.386	0.02013474
421.598	0.01994123
421.81	0.01978908
422.022	0.01975202
422.234	0.01965796
422.446	0.0194143
422.658	0.01933792
422.87	0.01976902
423.082	0.01980472
423.294	0.0197272
423.506	0.01971139
423.718	0.0195169
423.93	0.0196007
424.142	0.0196138
424.354	0.01940781
424.566	0.01927125
424.778	0.01936369
424.99	0.01923
425.202	0.01909235
425.414	0.01896866
425.625	0.01888556
425.837	0.01867089
426.049	0.01859535
426.261	0.01850342
426.473	0.01847342
426.684	0.01851908
426.896	0.01852838
427.108	0.0184753
427.32	0.0186574
427.531	0.01852988
427.743	0.01836705
427.955	0.01843319
428.167	0.01841453
428.378	0.01806118
428.59	0.01791316
428.802	0.01751995
429.013	0.0175501
429.225	0.01757109
429.436	0.0174972
429.648	0.01741004
429.86	0.01764708
430.071	0.01744805
430.283	0.01752422
430.494	0.01761954
430.706	0.01735021
430.917	0.0171345
431.129	0.01690016
431.34	0.016705
431.552	0.01683114
431.763	0.01697853
431.975	0.01679446
432.186	0.0167111
432.398	0.01676908
432.609	0.01691997
432.821	0.01698599
433.032	0.01689861
433.243	0.01675112
433.455	0.01657757
433.666	0.01651029
433.877	0.01656535
434.089	0.01630348
434.3	0.01628473
434.511	0.0160855
434.723	0.01589332
434.934	0.01583369
435.145	0.0157524
435.356	0.01542008
435.568	0.01556533
435.779	0.01536056
435.99	0.01526
436.201	0.01511497
436.412	0.015039
436.624	0.01504892
436.835	0.01500823
437.046	0.01486676
437.257	0.01475009
437.468	0.01482421
437.679	0.01491667
437.89	0.01484072
438.101	0.01473144
438.312	0.01460442
438.523	0.01441498
438.734	0.01445211
438.945	0.0143344
439.156	0.01410214
439.367	0.01395744
439.578	0.01380638
439.789	0.01373835
440	0.01366212
440.211	0.01345962
440.422	0.01331944
440.633	0.01328435
440.844	0.01332157
441.055	0.0133233
441.266	0.01317038
441.477	0.0131765
441.687	0.01296904
441.898	0.01308877
442.109	0.01300618
442.32	0.01294675
442.531	0.01291551
442.741	0.01292139
442.952	0.01265505
443.163	0.01269333
443.374	0.01247152
443.584	0.0124735
443.795	0.01214507
444.006	0.01192798
444.216	0.01187139
444.427	0.01188322
444.638	0.01173358
444.848	0.01163039
445.059	0.01154695
445.27	0.01148365
445.48	0.01141681
445.691	0.01132201
445.901	0.01140385
446.112	0.01148332
446.323	0.01155753
446.533	0.01134338
446.744	0.01136673
446.954	0.01131906
447.165	0.01120759
447.375	0.01103392
447.586	0.0108123
447.796	0.01063157
448.006	0.01062286
448.217	0.01053434
448.427	0.010517
448.638	0.01041615
448.848	0.01020523
449.058	0.01016508
449.269	0.01003819
449.479	0.00986742
449.689	0.00983592
449.9	0.00972145
450.11	0.00969508
450.32	0.0098892
450.531	0.00978919
450.741	0.00967549
450.951	0.00958432
451.161	0.00961126
451.372	0.00953824
451.582	0.00948923
451.792	0.00932315
452.002	0.00933744
452.212	0.00930388
452.422	0.00918963
452.633	0.00900702
452.843	0.00895654
453.053	0.00885762
453.263	0.00867296
453.473	0.00846186
453.683	0.00847804
453.893	0.00846412
454.103	0.00837832
454.313	0.00842296
454.523	0.00840824
454.733	0.00831584
454.943	0.00836598
455.153	0.00816589
455.363	0.0081866
455.573	0.00813059
455.783	0.0078124
455.993	0.00774385
456.203	0.00767213
456.413	0.00758951
456.623	0.00767469
456.833	0.00758676
457.042	0.00756842
457.252	0.00770554
457.462	0.00770014
457.672	0.00782055
457.882	0.00766664
458.091	0.00753755
458.301	0.00743701
458.511	0.00721246
458.721	0.00718098
458.931	0.00692976
459.14	0.00676069
459.35	0.00684532
459.56	0.00674259
459.769	0.00662384
459.979	0.00674348
460.189	0.00659961
460.398	0.0066094
460.608	0.0065545
460.817	0.00649453
461.027	0.0064791
461.237	0.0065314
461.446	0.0064135
461.656	0.00647811
461.865	0.00641002
462.075	0.00632744
462.284	0.0062215
462.494	0.0061531
462.703	0.00604029
462.913	0.0060225
463.122	0.00585198
463.332	0.00583703
463.541	0.00585702
463.751	0.00585094
463.96	0.00583629
464.169	0.00584364
464.379	0.00582087
464.588	0.00585488
464.797	0.00580761
465.007	0.00577
465.216	0.00567278
465.425	0.00567177
465.635	0.00568424
465.844	0.00563894
466.053	0.00551193
466.263	0.00541939
466.472	0.00530703
466.681	0.00516539
466.89	0.0051078
467.099	0.00505732
467.309	0.00501942
467.518	0.00509932
467.727	0.00514641
467.936	0.00507671
468.145	0.00511535
468.354	0.00490497
468.563	0.0048106
468.772	0.00480005
468.982	0.00460963
469.191	0.00456403
469.4	0.0046224
469.609	0.00468413
469.818	0.00481655
470.027	0.00492178
470.236	0.00485994
470.445	0.00491455
470.654	0.00488651
470.863	0.00485687
471.072	0.0048624
471.28	0.00484233
471.489	0.0047219
471.698	0.0047276
471.907	0.00469427
472.116	0.0046421
472.325	0.00459132
472.534	0.00452901
472.743	0.00447078
472.951	0.00445332
473.16	0.00432679
473.369	0.00420032
473.578	0.00421127
473.786	0.0042302
473.995	0.00417573
474.204	0.00415402
474.413	0.00412493
474.621	0.00420838
474.83	0.00433841
475.039	0.00433092
475.247	0.00433178
475.456	0.00436963
475.665	0.00437367
475.873	0.00439227
476.082	0.00438647
476.291	0.00430222
476.499	0.00428356
476.708	0.00413187
476.916	0.00409026
477.125	0.00409554
477.333	0.00408941
477.542	0.00395811
477.75	0.00387469
477.959	0.00388544
478.167	0.00404307
478.376	0.00392279
478.584	0.00388348
478.793	0.00378918
479.001	0.00381185
479.209	0.00387438
479.418	0.003881
479.626	0.00381058
479.834	0.00398368
480.043	0.00396522
480.251	0.00406964
480.459	0.00411755
480.668	0.00411721
480.876	0.00404224
481.084	0.00405887
481.293	0.0040119
481.501	0.00407181
481.709	0.00399528
481.917	0.00394234
482.125	0.00392933
482.334	0.00392832
482.542	0.00393307
482.75	0.0039131
482.958	0.00378617
483.166	0.00381527
483.374	0.0038848
483.583	0.00395511
483.791	0.00394645
483.999	0.00392937
484.207	0.00387459
484.415	0.00391937
484.623	0.00390486
484.831	0.00388345
485.039	0.00385564
485.247	0.00388045
485.455	0.0038546
485.663	0.00391208
485.871	0.00392374
486.079	0.00394181
486.287	0.00394305
486.495	0.00393631
486.702	0.00392531
486.91	0.00394286
487.118	0.0039556
487.326	0.00400438
487.534	0.00394769
487.742	0.00396028
487.95	0.00395027
488.157	0.00397629
488.365	0.00394205
488.573	0.00398043
488.781	0.00400769
488.988	0.00402736
489.196	0.00398658
489.404	0.0040046
489.612	0.00402939
489.819	0.00404782
490.027	0.00405017
490.235	0.00398929
490.442	0.00408363
490.65	0.00409895
490.857	0.00409062
491.065	0.00413667
491.273	0.00422157
491.48	0.00421017
491.688	0.00422451
491.895	0.00416622
492.103	0.00427346
492.31	0.00434716
492.518	0.00434811
492.725	0.00430881
492.933	0.00433467
493.14	0.00438693
493.348	0.0044503
493.555	0.00437381
493.763	0.0043417
493.97	0.00432688
494.177	0.00435801
494.385	0.00430115
494.592	0.00433118
494.8	0.00432367
495.007	0.00434411
495.214	0.00435315
495.422	0.0043982
495.629	0.00448093
495.836	0.00453763
496.043	0.00448498
496.251	0.00447859
496.458	0.00447612
496.665	0.00450227
496.872	0.00447264
497.08	0.00446611
497.287	0.00451449
497.494	0.0045103
497.701	0.00456184
497.908	0.00461222
498.115	0.00463284
498.322	0.0046985
498.53	0.00469162
498.737	0.00467892
498.944	0.00482688
499.151	0.00489817
499.358	0.00496541
499.565	0.00502716
499.772	0.00503197
499.979	0.00504768
500.186	0.00510987
500.393	0.00509753
500.6	0.00509529
500.807	0.00511007
501.014	0.00502994
501.221	0.00504281
501.427	0.00504721
501.634	0.0050333
501.841	0.00503896
502.048	0.00500881
502.255	0.00509727
502.462	0.00518219
502.669	0.00521918
502.875	0.00528605
503.082	0.00531809
503.289	0.00537419
503.496	0.00544294
503.702	0.00536792
503.909	0.00538311
504.116	0.00540525
504.323	0.00539228
504.529	0.00546492
504.736	0.00552379
504.943	0.00554236
505.149	0.00563357
505.356	0.00571756
505.563	0.00575392
505.769	0.00580865
505.976	0.00580382
506.182	0.00579175
506.389	0.0058013
506.595	0.00584938
506.802	0.0058486
507.008	0.00593196
507.215	0.00596062
507.421	0.0060163
507.628	0.00601506
507.834	0.00605841
508.041	0.00602576
508.247	0.00608131
508.454	0.00609848
508.66	0.00613656
508.866	0.00617161
509.073	0.00623508
509.279	0.00633521
509.486	0.00639075
509.692	0.00645764
509.898	0.00647036
510.105	0.00652412
510.311	0.00659543
510.517	0.00663416
510.723	0.00666283
510.93	0.0067268
511.136	0.00670593
511.342	0.00679987
511.548	0.00683136
511.754	0.00686418
511.961	0.00693235
512.167	0.00695912
512.373	0.00697876
512.579	0.00707083
512.785	0.0070927
512.991	0.00715754
513.197	0.00717121
513.404	0.00722636
513.61	0.00727432
513.816	0.00736776
514.022	0.00741532
514.228	0.0074571
514.434	0.0074471
514.64	0.00750623
514.846	0.00750099
515.052	0.00757115
515.258	0.00759384
515.464	0.00763639
515.669	0.00766872
515.875	0.0077583
516.081	0.00779089
516.287	0.0079026
516.493	0.00796999
516.699	0.00799478
516.905	0.00806011
517.111	0.00811536
517.316	0.00819736
517.522	0.00829254
517.728	0.00838961
517.934	0.0084409
518.139	0.00853418
518.345	0.00856482
518.551	0.00866317
518.757	0.00872255
518.962	0.00876497
519.168	0.00875492
519.374	0.00876243
519.579	0.00879795
519.785	0.00887002
519.991	0.00889587
520.196	0.00894037
520.402	0.00899689
520.607	0.00902587
520.813	0.00906003
521.018	0.00912714
521.224	0.0091628
521.429	0.00924755
521.635	0.00931915
521.84	0.00932728
522.046	0.00941918
522.251	0.00955097
522.457	0.0096706
522.662	0.00977355
522.868	0.00981223
523.073	0.00985738
523.279	0.00998976
523.484	0.01009822
523.689	0.01009583
523.895	0.01012735
524.1	0.01021792
524.305	0.01026549
524.511	0.01033134
524.716	0.01034897
524.921	0.01035155
525.126	0.01045387
525.332	0.01046059
525.537	0.01048873
525.742	0.01054055
525.947	0.01061585
526.153	0.01070814
526.358	0.01071684
526.563	0.01076193
526.768	0.0108761
526.973	0.01097818
527.178	0.01107901
527.383	0.01114811
527.588	0.01125861
527.794	0.01140084
527.999	0.01147072
528.204	0.01160292
528.409	0.01165367
528.614	0.01172167
528.819	0.01177701
529.024	0.01181886
529.229	0.01190077
529.434	0.01196721
529.639	0.01195887
529.843	0.01202664
530.048	0.01210411
530.253	0.01221695
530.458	0.01229063
530.663	0.01237937
530.868	0.01249412
531.073	0.01256734
531.278	0.01265839
531.482	0.01271846
531.687	0.01277917
531.892	0.01285771
532.097	0.01294675
532.302	0.01301029
532.506	0.01314348
532.711	0.01319214
532.916	0.01326464
533.12	0.01338171
533.325	0.01347692
533.53	0.01353544
533.734	0.01362833
533.939	0.01370574
534.144	0.0138155
534.348	0.01395517
534.553	0.01396921
534.757	0.01399948
534.962	0.01410564
535.167	0.01415069
535.371	0.01420489
535.576	0.01430837
535.78	0.01439053
535.985	0.01450014
536.189	0.01462907
536.394	0.01468879
536.598	0.01481414
536.803	0.01490116
537.007	0.01497753
537.211	0.01503852
537.416	0.01511658
537.62	0.01520467
537.825	0.01532625
538.029	0.01539622
538.233	0.01549769
538.438	0.01557294
538.642	0.01566157
538.846	0.01572774
539.05	0.0158176
539.255	0.01585973
539.459	0.01600526
539.663	0.01610574
539.867	0.01620986
540.072	0.01629795
540.276	0.01640447
540.48	0.01646785
540.684	0.01659953
540.888	0.01669348
541.092	0.01678438
541.297	0.01683326
541.501	0.0169229
541.705	0.01705094
541.909	0.01720796
542.113	0.01731827
542.317	0.0174262
542.521	0.01753982
542.725	0.01769587
542.929	0.01783893
543.133	0.01797722
543.337	0.01807818
543.541	0.01818492
543.745	0.01824766
543.949	0.01839767
544.153	0.01849528
544.357	0.01861952
544.56	0.01866849
544.764	0.01873812
544.968	0.01886054
545.172	0.01897067
545.376	0.0190492
545.58	0.01914702
545.783	0.01925258
545.987	0.01940524
546.191	0.01950388
546.395	0.01962611
546.598	0.01976463
546.802	0.01986516
547.006	0.01994881
547.21	0.02005486
547.413	0.02019875
547.617	0.02039363
547.821	0.0205075
548.024	0.02064736
548.228	0.02072892
548.431	0.02091802
548.635	0.02108163
548.839	0.02123169
549.042	0.02131918
549.246	0.02141843
549.449	0.0215251
549.653	0.02169955
549.856	0.02176868
550.06	0.02184591
550.263	0.02190787
550.467	0.02201807
550.67	0.02211938
550.874	0.02222516
551.077	0.02230146
551.28	0.02249127
551.484	0.02261547
551.687	0.0227101
551.891	0.02284191
552.094	0.02296365
552.297	0.02313247
552.501	0.0232847
552.704	0.02335996
552.907	0.02348639
553.11	0.02364128
553.314	0.02378345
553.517	0.02390816
553.72	0.02397601
553.923	0.02410088
554.127	0.02421766
554.33	0.02432365
554.533	0.02445494
554.736	0.02458044
554.939	0.02473207
555.142	0.02491903
555.345	0.02506541
555.549	0.02518311
555.752	0.02535631
555.955	0.02548594
556.158	0.02561983
556.361	0.0257614
556.564	0.02586289
556.767	0.02599169
556.97	0.02612221
557.173	0.02624733
557.376	0.02641879
557.579	0.02653183
557.782	0.02668092
557.984	0.02680976
558.187	0.02695471
558.39	0.0271571
558.593	0.0272538
558.796	0.02737234
558.999	0.02755289
559.202	0.02772276
559.404	0.02782122
559.607	0.02795288
559.81	0.02806847
560.013	0.02825982
560.216	0.02838704
560.418	0.02852529
560.621	0.02860352
560.824	0.02880867
561.026	0.02898021
561.229	0.02912191
561.432	0.0292706
561.634	0.02941295
561.837	0.0295738
562.04	0.02973959
562.242	0.02984469
562.445	0.02997703
562.647	0.03018215
562.85	0.03030271
563.053	0.0304985
563.255	0.03061317
563.458	0.03077454
563.66	0.03095013
563.863	0.03109496
564.065	0.03123367
564.268	0.0314075
564.47	0.03151796
564.672	0.03169987
564.875	0.03181992
565.077	0.03198297
565.28	0.03213495
565.482	0.03228538
565.684	0.03245987
565.887	0.03261308
566.089	0.03276905
566.291	0.03294727
566.494	0.03312265
566.696	0.03331148
566.898	0.03348019
567.1	0.03359515
567.303	0.03378665
567.505	0.03396342
567.707	0.03412155
567.909	0.03429322
568.111	0.03445173
568.314	0.0345859
568.516	0.03475324
568.718	0.03495264
568.92	0.03511142
569.122	0.0352723
569.324	0.03545965
569.526	0.03557964
569.728	0.03575464
569.93	0.03590924
570.132	0.03604235
570.334	0.03617303
570.536	0.0363454
570.738	0.03647602
570.94	0.03667292
571.142	0.03682565
571.344	0.03701083
571.546	0.03713694
571.748	0.03731565
571.95	0.03749142
572.152	0.03763706
572.354	0.03778638
572.555	0.03798156
572.757	0.0381857
572.959	0.03834853
573.161	0.03854139
573.363	0.03870007
573.564	0.03892448
573.766	0.03911316
573.968	0.03927458
574.17	0.03939313
574.371	0.03958377
574.573	0.03972154
574.775	0.03989514
574.976	0.04001828
575.178	0.04017151
575.38	0.04032217
575.581	0.04054311
575.783	0.04070723
575.985	0.04089852
576.186	0.04109752
576.388	0.04129646
576.589	0.04149325
576.791	0.0417043
576.992	0.04184351
577.194	0.04206051
577.395	0.04225702
577.597	0.04238043
577.798	0.04258695
578	0.04275984
578.201	0.04293969
578.402	0.0431175
578.604	0.04327066
578.805	0.04343066
579.007	0.04362125
579.208	0.04375629
579.409	0.04391933
579.611	0.04408792
579.812	0.04428571
580.013	0.04449615
580.215	0.04464589
580.416	0.04481747
580.617	0.04496919
580.818	0.04512172
581.019	0.04525588
581.221	0.0454042
581.422	0.04555191
581.623	0.04573784
581.824	0.04590119
582.025	0.04609153
582.226	0.04626358
582.428	0.04648887
582.629	0.04667108
582.83	0.04688815
583.031	0.04707577
583.232	0.04726472
583.433	0.04747426
583.634	0.04768798
583.835	0.04783379
584.036	0.04798254
584.237	0.04808371
584.438	0.04822783
584.639	0.04842136
584.84	0.0485622
585.041	0.04876694
585.242	0.04897328
585.442	0.04918562
585.643	0.04939214
585.844	0.04962752
586.045	0.04980968
586.246	0.05000964
586.447	0.05016531
586.647	0.05029127
586.848	0.05047661
587.049	0.05064942
587.25	0.05077326
587.45	0.05099454
587.651	0.05115801
587.852	0.05129942
588.053	0.05154501
588.253	0.05168327
588.454	0.05185678
588.655	0.05202845
588.855	0.05216279
589.056	0.05233764
589.256	0.05254131
589.457	0.0526901
589.658	0.05287791
589.858	0.05309173
590.059	0.05331835
590.259	0.05350793
590.46	0.05373768
590.66	0.05384818
590.861	0.05401749
591.061	0.05416712
591.262	0.05430879
591.462	0.05446188
591.662	0.05463665
591.863	0.05477761
592.063	0.0550367
592.264	0.05522275
592.464	0.05544353
592.664	0.05565443
592.865	0.05586206
593.065	0.05600895
593.265	0.05619913
593.465	0.05637542
593.666	0.05653353
593.866	0.05668471
594.066	0.05683405
594.266	0.05692917
594.467	0.05716707
594.667	0.05730653
594.867	0.0574784
595.067	0.05762806
595.267	0.05782052
595.467	0.05800753
595.668	0.05818812
595.868	0.05832189
596.068	0.05851754
596.268	0.0586614
596.468	0.05884304
596.668	0.05899764
596.868	0.05915707
597.068	0.05935593
597.268	0.05951866
597.468	0.05966167
597.668	0.05984502
597.868	0.06005819
598.068	0.06026334
598.268	0.06045014
598.467	0.06066099
598.667	0.06081276
598.867	0.06098575
599.067	0.06117261
599.267	0.06129981
599.467	0.06146312
599.667	0.06161287
599.866	0.06172321
600.066	0.06189634
600.266	0.06205592
600.466	0.0622208
600.665	0.06241094
600.865	0.06253728
601.065	0.0626916
601.264	0.0628352
601.464	0.06299269
601.664	0.06316943
601.863	0.06329196
602.063	0.06342739
602.263	0.06356318
602.462	0.0637472
602.662	0.06396128
602.861	0.06415063
603.061	0.06430292
603.26	0.06446855
603.46	0.06458936
603.659	0.06480275
603.859	0.06493083
604.058	0.06507223
604.258	0.06525472
604.457	0.06545482
604.657	0.06557
604.856	0.06573418
605.056	0.06586435
605.255	0.06599375
605.454	0.06612742
605.654	0.06622053
605.853	0.06631115
606.052	0.06647367
606.252	0.06666165
606.451	0.06683866
606.65	0.0670437
606.849	0.06718765
607.049	0.06735211
607.248	0.06752113
607.447	0.06767445
607.646	0.06781794
607.845	0.06797861
608.045	0.06804613
608.244	0.06822107
608.443	0.06837492
608.642	0.06852534
608.841	0.06867096
609.04	0.06877026
609.239	0.06888455
609.438	0.06903718
609.637	0.0691839
609.836	0.06929714
610.035	0.06941865
610.234	0.0695886
610.433	0.0697666
610.632	0.06988819
610.831	0.07010096
611.03	0.07021139
611.229	0.07038009
611.428	0.07054004
611.627	0.07067734
611.826	0.07081986
612.025	0.07101941
612.224	0.07113736
612.422	0.07130371
612.621	0.07143806
612.82	0.07158566
613.019	0.07173295
613.218	0.07189204
613.416	0.07198276
613.615	0.07213005
613.814	0.07227865
614.012	0.07242732
614.211	0.07252847
614.41	0.07270409
614.608	0.07282006
614.807	0.07296823
615.006	0.07314318
615.204	0.0732744
615.403	0.0734317
615.602	0.0735797
615.8	0.07371671
615.999	0.07382802
616.197	0.07397688
616.396	0.07412508
616.594	0.07423131
616.793	0.07436561
616.991	0.07448236
617.19	0.07460492
617.388	0.07478459
617.586	0.07491018
617.785	0.07501175
617.983	0.07518273
618.182	0.07528616
618.38	0.07541863
618.578	0.07552448
618.777	0.07564714
618.975	0.07579287
619.173	0.07590643
619.372	0.07601648
619.57	0.07615083
619.768	0.07633491
619.966	0.07649155
620.165	0.07659908
620.363	0.07672066
620.561	0.07679763
620.759	0.07691264
620.957	0.07706805
621.155	0.07717425
621.354	0.07726002
621.552	0.07743418
621.75	0.07755027
621.948	0.07772536
622.146	0.07786098
622.344	0.07794229
622.542	0.07807435
622.74	0.07820073
622.938	0.07826094
623.136	0.07841557
623.334	0.07852348
623.532	0.0785876
623.73	0.07867926
623.928	0.07884176
624.126	0.07898535
624.324	0.07913814
624.522	0.07921015
624.719	0.07931838
624.917	0.07951297
625.115	0.07961616
625.313	0.07969679
625.511	0.0798164
625.708	0.07989162
625.906	0.07999432
626.104	0.08007404
626.302	0.08021769
626.499	0.08037984
626.697	0.08048722
626.895	0.08057232
627.093	0.08070683
627.29	0.0808734
627.488	0.08109632
627.686	0.08117758
627.883	0.08125598
628.081	0.08130272
628.278	0.08151248
628.476	0.08161014
628.673	0.0817136
628.871	0.081822
629.068	0.08194742
629.266	0.08210311
629.463	0.08222823
629.661	0.08226369
629.858	0.08237943
630.056	0.08247418
630.253	0.08250669
630.451	0.08259801
630.648	0.08270486
630.845	0.0828204
631.043	0.08292114
631.24	0.08307904
631.438	0.08318973
631.635	0.08330825
631.832	0.08336013
632.029	0.08346206
632.227	0.0835361
632.424	0.08365653
632.621	0.08371005
632.818	0.08376409
633.016	0.08386221
633.213	0.08398249
633.41	0.08407409
633.607	0.08421081
633.804	0.08427862
634.001	0.08436484
634.199	0.08456148
634.396	0.08467247
634.593	0.08473923
634.79	0.08485491
634.987	0.08500577
635.184	0.08512425
635.381	0.08530344
635.578	0.08536
635.775	0.08543998
635.972	0.08559672
636.169	0.08570879
636.366	0.08572911
636.563	0.08581374
636.76	0.08579075
636.957	0.08592824
637.153	0.08597981
637.35	0.08609258
637.547	0.08614198
637.744	0.08626144
637.941	0.08636287
638.138	0.08653879
638.334	0.08655553
638.531	0.08669535
638.728	0.08674693
638.925	0.08688393
639.121	0.0869788
639.318	0.08706642
639.515	0.08711467
639.711	0.08724386
639.908	0.08731528
640.105	0.08744616
640.301	0.0875111
640.498	0.08759086
640.695	0.08774211
640.891	0.08782054
641.088	0.08792181
641.284	0.08806306
641.481	0.08810758
641.677	0.08819495
641.874	0.0883087
642.07	0.0883973
642.267	0.08857755
642.463	0.08864492
642.66	0.08872668
642.856	0.08881351
643.053	0.08888073
643.249	0.08897322
643.445	0.08903548
643.642	0.08908581
643.838	0.08922406
644.034	0.0893331
644.231	0.08942652
644.427	0.08955003
644.623	0.08960659
644.82	0.0896834
645.016	0.08970378
645.212	0.08969895
645.408	0.0897346
645.604	0.08984539
645.801	0.08993666
645.997	0.09002507
646.193	0.09008519
646.389	0.09027496
646.585	0.09038459
646.781	0.09049914
646.977	0.09058039
647.173	0.09062861
647.37	0.09069639
647.566	0.09079972
647.762	0.09080901
647.958	0.09093234
648.154	0.09095923
648.35	0.09103172
648.546	0.09113968
648.742	0.09128515
648.937	0.09130565
649.133	0.0913784
649.329	0.09145261
649.525	0.09157131
649.721	0.09165415
649.917	0.09178405
650.113	0.09183815
650.309	0.09196606
650.504	0.09206852
650.7	0.09212613
650.896	0.09225975
651.092	0.09236508
651.287	0.09239904
651.483	0.09251359
651.679	0.0926064
651.875	0.09271366
652.07	0.09279585
652.266	0.09286194
652.462	0.09292203
652.657	0.09300732
652.853	0.09304035
653.048	0.09310004
653.244	0.09313238
653.44	0.09319228
653.635	0.09322697
653.831	0.0933461
654.026	0.0934397
654.222	0.09354045
654.417	0.09366642
654.613	0.09380637
654.808	0.09390527
655.004	0.09399719
655.199	0.09402393
655.394	0.09406921
655.59	0.09418705
655.785	0.09423686
655.98	0.09429052
656.176	0.09434583
656.371	0.09447645
656.566	0.09459761
656.762	0.09466234
656.957	0.09470818
657.152	0.09478034
657.348	0.09485021
657.543	0.09496941
657.738	0.09504007
657.933	0.0950412
658.128	0.09511569
658.324	0.09515837
658.519	0.09523413
658.714	0.09531636
658.909	0.09537746
659.104	0.09544862
659.299	0.09559484
659.494	0.09567118
659.689	0.09575406
659.884	0.09581141
660.079	0.09587848
660.274	0.09598064
660.469	0.09606835
660.664	0.09615525
660.859	0.09625127
661.054	0.09636162
661.249	0.09646582
661.444	0.0965836
661.639	0.09663108
661.834	0.09666478
662.029	0.09673412
662.224	0.09687732
662.418	0.09699346
662.613	0.0970731
662.808	0.09714983
663.003	0.09727769
663.198	0.09741312
663.392	0.09749885
663.587	0.09762813
663.782	0.09767106
663.977	0.09774414
664.171	0.09780903
664.366	0.09790062
664.561	0.0979424
664.755	0.09805332
664.95	0.09803244
665.144	0.09809071
665.339	0.09820963
665.534	0.09828489
665.728	0.09835183
665.923	0.09845335
666.117	0.0984796
666.312	0.09856009
666.506	0.09871885
666.701	0.0988163
666.895	0.09893565
667.09	0.09901647
667.284	0.09912507
667.479	0.09924579
667.673	0.09933658
667.867	0.09942245
668.062	0.09949618
668.256	0.09957352
668.45	0.09972404
668.645	0.09975467
668.839	0.09983624
669.033	0.0999365
669.228	0.09999735
669.422	0.10009331
669.616	0.10017173
669.81	0.10020702
670.004	0.10033025
670.199	0.10042035
670.393	0.10053018
670.587	0.10067029
670.781	0.10074872
670.975	0.1008782
671.169	0.10092549
671.363	0.10096184
671.558	0.10104695
671.752	0.10112683
671.946	0.10114279
672.14	0.10123442
672.334	0.10127102
672.528	0.10146823
672.722	0.10161153
672.916	0.10172055
673.11	0.1017682
673.304	0.10195495
673.497	0.10204083
673.691	0.10220999
673.885	0.1022396
674.079	0.10235584
674.273	0.10242923
674.467	0.1026114
674.661	0.10263966
674.854	0.10271559
675.048	0.102771
675.242	0.10283077
675.436	0.10288343
675.629	0.10299094
675.823	0.10298989
676.017	0.10310979
676.211	0.10321118
676.404	0.10327172
676.598	0.10337587
676.792	0.10347467
676.985	0.10357919
677.179	0.10376077
677.372	0.1038273
677.566	0.10395361
677.76	0.10410309
677.953	0.10425127
678.147	0.10439457
678.34	0.10452648
678.534	0.10455155
678.727	0.10469469
678.921	0.10485746
679.114	0.10494179
679.307	0.1050749
679.501	0.10518848
679.694	0.10529837
679.888	0.10543334
680.081	0.10552292
680.274	0.10555852
680.468	0.10568281
680.661	0.10573893
680.854	0.10591884
681.048	0.10603642
681.241	0.10617185
681.434	0.10624354
681.627	0.10640075
681.821	0.10654939
682.014	0.10671267
682.207	0.10672983
682.4	0.10678022
682.593	0.10692706
682.786	0.1070317
682.98	0.10709205
683.173	0.1071622
683.366	0.10724013
683.559	0.10733767
683.752	0.10747533
683.945	0.10756424
684.138	0.10772342
684.331	0.1078673
684.524	0.10800584
684.717	0.10809029
684.91	0.1082741
685.103	0.10837436
685.296	0.10853366
685.489	0.10863602
685.682	0.10870994
685.874	0.10882595
686.067	0.10894734
686.26	0.10901496
686.453	0.10912193
686.646	0.1091618
686.839	0.10927222
687.031	0.10943658
687.224	0.1095195
687.417	0.10965789
687.61	0.10976678
687.802	0.10991202
687.995	0.11002453
688.188	0.11014668
688.38	0.11021324
688.573	0.11033206
688.766	0.11044245
688.958	0.11047858
689.151	0.11053263
689.343	0.11067766
689.536	0.11080307
689.729	0.11092465
689.921	0.1110504
690.114	0.11113795
690.306	0.11132221
690.499	0.11148996
690.691	0.11160145
690.884	0.11169282
691.076	0.11184266
691.268	0.11192267
691.461	0.11202757
691.653	0.11212938
691.846	0.1122694
692.038	0.11242167
692.23	0.11254694
692.423	0.11266253
692.615	0.11277
692.807	0.11288462
692.999	0.1130667
693.192	0.113114
693.384	0.11321932
693.576	0.11334305
693.768	0.11345174
693.961	0.1135747
694.153	0.11375198
694.345	0.11384569
694.537	0.11397188
694.729	0.11402743
694.921	0.11408816
695.113	0.11418662
695.305	0.11430634
695.498	0.11435593
695.69	0.11448019
695.882	0.11460675
696.074	0.11480184
696.266	0.11496615
696.458	0.11512118
696.65	0.11523664
696.842	0.11538678
697.033	0.11548184
697.225	0.11562036
697.417	0.115744
697.609	0.11589126
697.801	0.11601143
697.993	0.11622101
698.185	0.11633842
698.376	0.11648891
698.568	0.11658987
698.76	0.11671274
698.952	0.1168162
699.144	0.11691209
699.335	0.11699525
699.527	0.11714298
699.719	0.11723388
699.91	0.11746167
700.102	0.1175708
700.294	0.11770985
700.485	0.11788307
700.677	0.1179765
700.869	0.11811336
701.06	0.11830774
701.252	0.11836885
701.443	0.11851573
701.635	0.11862422
701.826	0.11876036
702.018	0.1189264
702.209	0.1190646
702.401	0.11912562
702.592	0.11925698
702.784	0.11935755
702.975	0.11954573
703.166	0.11968395
703.358	0.11978405
703.549	0.11995144
703.741	0.1201575
703.932	0.12030655
704.123	0.12040556
704.315	0.12052179
704.506	0.12064971
704.697	0.12078754
704.888	0.12089081
705.08	0.12097867
705.271	0.12113158
705.462	0.12128169
705.653	0.12142542
705.844	0.12149299
706.035	0.12164472
706.227	0.12174908
706.418	0.12187519
706.609	0.12197557
706.8	0.1221539
706.991	0.12226246
707.182	0.1224433
707.373	0.12253054
707.564	0.12267659
707.755	0.12277747
707.946	0.12287939
708.137	0.12294713
708.328	0.12306367
708.519	0.12317695
708.71	0.12333915
708.901	0.12343239
709.092	0.12358858
709.283	0.12370269
709.473	0.12386374
709.664	0.12399211
709.855	0.1241034
710.046	0.124289
710.237	0.12448173
710.427	0.12466126
710.618	0.12489293
710.809	0.12501097
711	0.12521171
711.19	0.12534084
711.381	0.12544654
711.572	0.12555027
711.762	0.12565823
711.953	0.12573028
712.144	0.12587768
712.334	0.12595825
712.525	0.126068
712.715	0.12618907
712.906	0.1262476
713.097	0.12632415
713.287	0.12641787
713.478	0.1265379
713.668	0.12664528
713.859	0.12681927
714.049	0.12692867
714.239	0.12711941
714.43	0.12727317
714.62	0.12743551
714.811	0.12760516
715.001	0.12778194
715.191	0.12792483
715.382	0.12803371
715.572	0.12818442
715.762	0.12828231
715.953	0.12835471
716.143	0.12842019
716.333	0.12852575
716.523	0.12862335
716.714	0.12879738
716.904	0.12890796
717.094	0.12911647
717.284	0.12929865
717.474	0.12945394
717.664	0.12961106
717.855	0.12976976
718.045	0.12986944
718.235	0.13003622
718.425	0.13017462
718.615	0.13031609
718.805	0.13047153
718.995	0.130595
719.185	0.13074539
719.375	0.13093912
719.565	0.13105033
719.755	0.13120302
719.945	0.13139476
720.135	0.13157064
720.325	0.13173595
720.515	0.13188579
720.704	0.131973
720.894	0.13216983
721.084	0.13227972
721.274	0.13240799
721.464	0.13255065
721.654	0.13268081
721.843	0.13284501
722.033	0.13307134
722.223	0.1331546
722.413	0.13332722
722.602	0.13343954
722.792	0.13359732
722.982	0.13371883
723.171	0.13379905
723.361	0.13387046
723.55	0.13403963
723.74	0.13414227
723.93	0.13429916
724.119	0.13436192
724.309	0.13449706
724.498	0.13462832
724.688	0.13476716
724.877	0.13490702
725.067	0.13498661
725.256	0.13508054
725.446	0.13527752
725.635	0.13538738
725.825	0.13550496
726.014	0.13559095
726.203	0.13569325
726.393	0.13580986
726.582	0.1359503
726.771	0.13601531
726.961	0.13609813
727.15	0.13623397
727.339	0.13631657
727.529	0.13640572
727.718	0.13649776
727.907	0.13652582
728.096	0.13658704
728.286	0.13668296
728.475	0.13675954
728.664	0.13686704
728.853	0.13694449
729.042	0.13705639
729.231	0.1371906
729.42	0.13727032
729.609	0.13731195
729.799	0.13737809
729.988	0.13748133
730.177	0.13749387
730.366	0.1376052
730.555	0.13767054
730.744	0.13778026
730.933	0.13794919
731.122	0.13806132
731.31	0.13815541
731.499	0.13824406
731.688	0.13833796
731.877	0.13844086
732.066	0.13851068
732.255	0.1385476
732.444	0.13859791
732.632	0.13865901
732.821	0.13878574
733.01	0.1388626
733.199	0.13891184
733.388	0.13903339
733.576	0.13912488
733.765	0.13923639
733.954	0.13936335
734.142	0.13950261
734.331	0.13956522
734.52	0.13968891
734.708	0.13974486
734.897	0.13984062
735.086	0.13990029
735.274	0.13994432
735.463	0.13999593
735.651	0.14011439
735.84	0.14018304
736.028	0.14032256
736.217	0.1404269
736.405	0.14051248
736.594	0.14064835
736.782	0.1407451
736.971	0.14076086
737.159	0.14087615
737.347	0.14091705
737.536	0.14097445
737.724	0.1410917
737.912	0.1411768
738.101	0.14119582
738.289	0.14129934
738.477	0.14136404
738.666	0.14143001
738.854	0.14149225
739.042	0.14151709
739.23	0.14153114
739.418	0.14168173
739.607	0.14177176
739.795	0.14186134
739.983	0.14195474
740.171	0.14203128
740.359	0.14215862
740.547	0.14231117
740.735	0.14237671
740.923	0.14245553
741.112	0.14251276
741.3	0.14257112
741.488	0.14265222
741.676	0.14273733
741.864	0.14279163
742.052	0.1429361
742.239	0.14301838
742.427	0.14307908
742.615	0.14319173
742.803	0.14327986
742.991	0.14329229
743.179	0.14333323
743.367	0.14333345
743.555	0.14341085
743.742	0.14349463
743.93	0.14356273
744.118	0.14363504
744.306	0.14373714
744.494	0.14378232
744.681	0.14379956
744.869	0.14382347
745.057	0.14389862
745.244	0.14396305
745.432	0.14402552
745.62	0.14412238
745.807	0.14422853
745.995	0.14431324
746.182	0.14435624
746.37	0.14437142
746.558	0.14442507
746.745	0.14446603
746.933	0.14446947
747.12	0.14448638
747.308	0.14454732
747.495	0.1446455
747.683	0.14472344
747.87	0.14477087
748.057	0.14481322
748.245	0.14484226
748.432	0.14488332
748.62	0.14494089
748.807	0.1449785
748.994	0.14501757
749.182	0.14501361
749.369	0.14504645
749.556	0.1451411
749.743	0.14520637
749.931	0.14523277
750.118	0.14524601
750.305	0.14530641
750.492	0.14537666
750.68	0.14542419
750.867	0.14542393
751.054	0.1454732
751.241	0.14551154
751.428	0.1456049
751.615	0.1456467
751.802	0.1456831
751.989	0.14573552
752.176	0.14581511
752.363	0.14583714
752.55	0.14592863
752.737	0.14591804
752.924	0.14589822
753.111	0.14595974
753.298	0.14598254
753.485	0.14605268
753.672	0.14612024
753.859	0.14610934
754.046	0.14614334
754.233	0.14617205
754.42	0.14618123
754.606	0.14622302
754.793	0.14622241
754.98	0.14624518
755.167	0.14629856
755.353	0.14633933
755.54	0.14645221
755.727	0.14646485
755.914	0.14644544
756.1	0.14644003
756.287	0.14644956
756.474	0.14636624
756.66	0.1463713
756.847	0.14630089
757.033	0.14627638
757.22	0.146312
757.407	0.14632122
757.593	0.14635578
757.78	0.14645814
757.966	0.14646642
758.153	0.14655035
758.339	0.14659085
758.526	0.14663403
758.712	0.14660176
758.898	0.14661329
759.085	0.1465928
759.271	0.14661834
759.458	0.14660543
759.644	0.14664263
759.83	0.14666892
760.017	0.14671997
760.203	0.14672348
760.389	0.1467126
760.576	0.14675637
760.762	0.14678972
760.948	0.14678755
761.134	0.14675119
761.32	0.14676957
761.507	0.14678638
761.693	0.146868
761.879	0.14684179
762.065	0.14680643
762.251	0.14682807
762.437	0.1469014
762.623	0.14689686
762.809	0.14681388
762.995	0.14681236
763.181	0.14678575
763.367	0.14680434
763.553	0.14681427
763.739	0.14677301
763.925	0.14676524
764.111	0.14681742
764.297	0.14673907
764.483	0.14680306
764.669	0.1467616
764.855	0.14668355
765.041	0.14667086
765.227	0.14659712
765.412	0.1465791
765.598	0.14660805
765.784	0.14657748
765.97	0.14662128
766.156	0.14663176
766.341	0.14659199
766.527	0.14663014
766.713	0.1466006
766.898	0.14654983
767.084	0.14650526
767.27	0.14644623
767.455	0.1464259
767.641	0.14645916
767.827	0.14644757
768.012	0.14645818
768.198	0.14652516
768.383	0.14650601
768.569	0.14648905
768.754	0.14647903
768.94	0.14640571
769.125	0.14642638
769.311	0.14642662
769.496	0.14635578
769.682	0.14639559
769.867	0.14639951
770.052	0.14643259
770.238	0.14645971
770.423	0.14640265
770.608	0.14635392
770.794	0.14632564
770.979	0.14620854
771.164	0.14614162
771.35	0.14607444
771.535	0.14606928
771.72	0.14601634
771.905	0.14600965
772.09	0.14596112
772.276	0.14594167
772.461	0.14594164
772.646	0.14588877
772.831	0.14582102
773.016	0.14580501
773.201	0.14572613
773.386	0.1456624
773.571	0.14560298
773.756	0.14556399
773.941	0.1455054
774.126	0.14539914
774.311	0.14527526
774.496	0.14525293
774.681	0.14521834
774.866	0.14512727
775.051	0.14498937
775.236	0.14489457
775.421	0.14483057
775.606	0.14479048
775.791	0.14468055
775.976	0.14460611
776.16	0.14464252
776.345	0.14463717
776.53	0.14466204
776.715	0.14466388
776.899	0.14460987
777.084	0.14458651
777.269	0.14451862
777.454	0.14436312
777.638	0.14425356
777.823	0.1441529
778.008	0.14399905
778.192	0.1439643
778.377	0.14389359
778.561	0.14385922
778.746	0.14383234
778.931	0.14379983
779.115	0.14373327
779.3	0.14373512
779.484	0.14363364
779.669	0.14350686
779.853	0.14338952
780.037	0.14334106
780.222	0.14327938
780.406	0.14321193
780.591	0.1431432
780.775	0.14305616
780.959	0.14298126
781.144	0.14289768
781.328	0.14278239
781.512	0.14267012
781.697	0.14254817
781.881	0.14238398
782.065	0.14230571
782.249	0.1422163
782.434	0.14216226
782.618	0.14209255
782.802	0.14204703
782.986	0.14198173
783.17	0.14197134
783.354	0.14185341
783.539	0.14179895
783.723	0.14172629
783.907	0.14160431
784.091	0.14146453
784.275	0.14131547
784.459	0.14121218
784.643	0.14121309
784.827	0.14113379
785.011	0.14107566
785.195	0.14098916
785.379	0.14094636
785.563	0.14091565
785.747	0.14081403
785.93	0.14066964
786.114	0.14048943
786.298	0.14032753
786.482	0.14022209
786.666	0.14008852
786.85	0.14003349
787.033	0.13992717
787.217	0.13989865
787.401	0.13985104
787.585	0.13975069
787.768	0.13965437
787.952	0.13950034
788.136	0.13931995
788.319	0.13920407
788.503	0.13905613
788.687	0.13892539
788.87	0.1388599
789.054	0.13874628
789.237	0.13868596
789.421	0.13860007
789.605	0.13850524
789.788	0.13837552
789.972	0.13825291
790.155	0.13806072
790.338	0.1379462
790.522	0.13782287
790.705	0.13768625
790.889	0.13754911
791.072	0.13741981
791.256	0.1373823
791.439	0.13726239
791.622	0.13713512
791.806	0.13703348
791.989	0.13689121
792.172	0.13677481
792.355	0.13661796
792.539	0.13642728
792.722	0.13627332
792.905	0.13615051
793.088	0.13599988
793.271	0.13591602
793.455	0.13578674
793.638	0.13571376
793.821	0.13559831
794.004	0.1355501
794.187	0.13548868
794.37	0.13537474
794.553	0.13521235
794.736	0.13505098
794.919	0.13482593
795.102	0.13471757
795.285	0.13463097
795.468	0.13444936
795.651	0.13434192
795.834	0.13425432
796.017	0.13421216
796.2	0.13420008
796.383	0.13407216
796.566	0.13392645
796.749	0.13383478
796.931	0.13368801
797.114	0.13353634
797.297	0.13334316
797.48	0.13314698
797.663	0.1330132
797.845	0.13283484
798.028	0.1327222
798.211	0.13258893
798.393	0.13247795
798.576	0.13237279
798.759	0.13222882
798.941	0.1320607
799.124	0.13195677
799.307	0.131729
799.489	0.13158034
799.672	0.13135357
799.854	0.13117616
800.037	0.13104762
800.219	0.13095153
800.402	0.13078596
800.584	0.13067511
800.767	0.13056042
800.949	0.13046749
801.132	0.13036647
801.314	0.13022132
801.496	0.13007079
801.679	0.12993998
801.861	0.12981373
802.043	0.12963263
802.226	0.12950564
802.408	0.12933476
802.59	0.12921188
802.772	0.12907597
802.955	0.12892371
803.137	0.1287491
803.319	0.12858915
803.501	0.12842528
803.684	0.12829082
803.866	0.12808458
804.048	0.12785171
804.23	0.12769947
804.412	0.12755057
804.594	0.12740357
804.776	0.12723117
804.958	0.12701674
805.14	0.12690452
805.322	0.12679968
805.504	0.12665992
805.686	0.12655569
805.868	0.12637606
806.05	0.1261824
806.232	0.12601517
806.414	0.12586013
806.596	0.12568989
806.778	0.12546286
806.96	0.12528715
807.141	0.12515901
807.323	0.12509663
807.505	0.12497065
807.687	0.12477224
807.869	0.12459086
808.05	0.12446942
808.232	0.12426909
808.414	0.12411119
808.595	0.1238542
808.777	0.12368491
808.959	0.12357844
809.14	0.12344855
809.322	0.1233258
809.504	0.12313495
809.685	0.12298013
809.867	0.12289025
810.048	0.12273283
810.23	0.12253909
810.411	0.12233648
810.593	0.1221877
810.774	0.12209913
810.956	0.12188813
811.137	0.12167758
811.319	0.12152174
811.5	0.12136888
811.681	0.12127573
811.863	0.12100807
812.044	0.12083869
812.225	0.12069445
812.407	0.12060558
812.588	0.120392
812.769	0.12020425
812.951	0.11999269
813.132	0.11986672
813.313	0.11966022
813.494	0.1194459
813.675	0.11927849
813.857	0.11915623
814.038	0.1189916
814.219	0.11883566
814.4	0.11858289
814.581	0.118455
814.762	0.11831158
814.943	0.11803717
815.124	0.11782582
815.305	0.11760218
815.486	0.11734741
815.667	0.11723163
815.848	0.11699206
816.029	0.11679751
816.21	0.11661882
816.391	0.1164343
816.572	0.1163461
816.753	0.11619454
816.934	0.11598978
817.115	0.11583201
817.295	0.1156899
817.476	0.11546179
817.657	0.11525594
817.838	0.11496757
818.019	0.11477584
818.199	0.11460332
818.38	0.11436619
818.561	0.11409677
818.741	0.11398972
818.922	0.11386074
819.103	0.11379891
819.283	0.11363548
819.464	0.11344168
819.645	0.11327067
819.825	0.1130725
820.006	0.11280108
820.186	0.11256241
820.367	0.11228066
820.547	0.11199934
820.728	0.11179114
820.908	0.11159889
821.089	0.11149015
821.269	0.11138413
821.45	0.11126662
821.63	0.11104961
821.81	0.11089679
821.991	0.11074102
822.171	0.1105419
822.351	0.11032387
822.532	0.11012772
822.712	0.10982038
822.892	0.10973964
823.072	0.10962683
823.253	0.10938232
823.433	0.10919269
823.613	0.10898112
823.793	0.10875729
823.973	0.10860228
824.154	0.10825658
824.334	0.1079759
824.514	0.10781647
824.694	0.1076079
824.874	0.10745241
825.054	0.10727307
825.234	0.1071139
825.414	0.10694733
825.594	0.10682793
825.774	0.10669855
825.954	0.1065355
826.134	0.10638861
826.314	0.10621808
826.494	0.10608849
826.674	0.10583063
826.854	0.10561111
827.033	0.10529047
827.213	0.10505995
827.393	0.10477424
827.573	0.1045489
827.753	0.10433451
827.932	0.10421989
828.112	0.10397722
828.292	0.10380583
828.472	0.10361506
828.651	0.10346789
828.831	0.10329777
829.011	0.10303147
829.19	0.10286231
829.37	0.10268869
829.549	0.10251469
829.729	0.10228253
829.909	0.10198406
830.088	0.10174564
830.268	0.1015106
830.447	0.10128231
830.627	0.10104409
830.806	0.1008598
830.986	0.1006797
831.165	0.10056506
831.344	0.10040909
831.524	0.10024801
831.703	0.10001366
831.883	0.09985448
832.062	0.09960875
832.241	0.09937316
832.421	0.09911734
832.6	0.09883192
832.779	0.09861659
832.958	0.09842975
833.138	0.09824565
833.317	0.09808344
833.496	0.09793896
833.675	0.09770896
833.854	0.09758533
834.034	0.0973932
834.213	0.09718704
834.392	0.09696402
834.571	0.09672585
834.75	0.09646128
834.929	0.09632281
835.108	0.09604948
835.287	0.0958897
835.466	0.09568818
835.645	0.09549026
835.824	0.09524898
836.003	0.09510882
836.182	0.0949492
836.361	0.09470149
836.54	0.09441637
836.719	0.0942073
836.897	0.09398758
837.076	0.09383809
837.255	0.09365837
837.434	0.09339985
837.613	0.09323148
837.791	0.09307893
837.97	0.09292373
838.149	0.09273832
838.328	0.09253232
838.506	0.09232051
838.685	0.09212069
838.864	0.09200394
839.042	0.09175203
839.221	0.09152082
839.4	0.09131675
839.578	0.09108733
839.757	0.09073328
839.935	0.09050224
840.114	0.0902855
840.292	0.09009535
840.471	0.08994804
840.649	0.08967629
840.828	0.08952886
841.006	0.08944348
841.185	0.08921817
841.363	0.08896608
841.541	0.08876998
841.72	0.08851551
841.898	0.08834065
842.076	0.08808199
842.255	0.08778218
842.433	0.08753668
842.611	0.08729669
842.789	0.08710669
842.968	0.08701341
843.146	0.0868669
843.324	0.08671757
843.502	0.08660706
843.68	0.08652279
843.859	0.08643809
844.037	0.08633326
844.215	0.08605918
844.393	0.08592903
844.571	0.08573164
844.749	0.08554985
844.927	0.08524165
845.105	0.08490787
845.283	0.08459438
845.461	0.08435398
845.639	0.08404465
845.817	0.08378027
845.995	0.08359834
846.173	0.08344625
846.351	0.08330711
846.529	0.08311777
846.706	0.08298721
846.884	0.0827786
847.062	0.08260681
847.24	0.08237228
847.418	0.08216033
847.595	0.08198537
847.773	0.08178227
847.951	0.08150894
848.129	0.08138398
848.306	0.08110597
848.484	0.08092612
848.662	0.0807894
848.839	0.08057953
849.017	0.08045237
849.194	0.08035104
849.372	0.08009269
849.549	0.07996579
849.727	0.07974765
849.905	0.07945418
850.082	0.0792283
850.26	0.07892933
850.437	0.07863452
850.614	0.0783981
850.792	0.07816427
850.969	0.07802846
851.147	0.07792717
851.324	0.07771748
851.501	0.07754785
851.679	0.07732413
851.856	0.07717234
852.033	0.07702727
852.211	0.07669622
852.388	0.0763964
852.565	0.07621517
852.742	0.07596104
852.92	0.07580354
853.097	0.07552278
853.274	0.07532806
853.451	0.07519402
853.628	0.07503817
853.805	0.07485988
853.982	0.0747288
854.159	0.07449133
854.336	0.0743398
854.514	0.07413998
854.691	0.0739167
854.868	0.07371409
855.045	0.07346479
855.221	0.07323474
855.398	0.07293194
855.575	0.07274931
855.752	0.07249317
855.929	0.07235834
856.106	0.07222373
856.283	0.07206357
856.46	0.07189262
856.637	0.07192201
856.813	0.07175115
856.99	0.07157591
857.167	0.071344
857.344	0.07107723
857.52	0.0709082
857.697	0.07070533
857.874	0.07039205
858.05	0.07025132
858.227	0.07000437
858.404	0.06990805
858.58	0.06971399
858.757	0.0695745
858.933	0.06940473
859.11	0.06926566
859.287	0.06897851
859.463	0.06885244
859.64	0.06855142
859.816	0.06835896
859.993	0.06806065
860.169	0.06782936
860.345	0.06756416
860.522	0.06740338
860.698	0.06718983
860.875	0.06698136
861.051	0.06681096
861.227	0.06666305
861.404	0.0665271
861.58	0.06646289
861.756	0.06625622
861.932	0.06615452
862.109	0.06600228
862.285	0.06577643
862.461	0.06550811
862.637	0.06528947
862.813	0.06505836
862.99	0.06489547
863.166	0.06467504
863.342	0.06453196
863.518	0.06439769
863.694	0.06442871
863.87	0.06424755
864.046	0.06407103
864.222	0.06387174
864.398	0.0637489
864.574	0.06354025
864.75	0.06341216
864.926	0.06307064
865.102	0.06288157
865.278	0.0627038
865.454	0.06257272
865.63	0.06233562
865.805	0.06222987
865.981	0.06209145
866.157	0.06195215
866.333	0.06189971
866.509	0.06176622
866.684	0.06159232
866.86	0.06147278
867.036	0.06134386
867.212	0.06112974
867.387	0.06104527
867.563	0.06075327
867.739	0.06053288
867.914	0.06036412
868.09	0.06008966
868.265	0.05972881
868.441	0.05952527
868.617	0.05924901
868.792	0.05916311
868.968	0.05894118
869.143	0.05876918
869.319	0.05866514
869.494	0.05864269
869.67	0.05849622
869.845	0.05842195
870.02	0.05822627
870.196	0.05802921
870.371	0.05781775
870.546	0.0575899
870.722	0.05730767
870.897	0.05709724
871.072	0.05683642
871.248	0.05653218
871.423	0.05639515
871.598	0.05621879
871.773	0.05611482
871.949	0.05602309
872.124	0.05585758
872.299	0.05565334
872.474	0.05561237
872.649	0.05539733
872.824	0.05523759
872.999	0.0549925
873.174	0.05466218
873.349	0.05444645
873.524	0.05424851
873.699	0.05400408
873.874	0.05390678
874.049	0.05368967
874.224	0.05353536
874.399	0.05345338
874.574	0.05332925
874.749	0.05323473
874.924	0.05310323
875.099	0.05297717
875.274	0.05284538
875.449	0.05263096
875.623	0.05249835
875.798	0.0522833
875.973	0.05204919
876.148	0.05177112
876.322	0.05150601
876.497	0.05128558
876.672	0.05111441
876.846	0.05089089
877.021	0.05081067
877.196	0.05075448
877.37	0.05071801
877.545	0.05057689
877.72	0.05040398
877.894	0.05023061
878.069	0.0500005
878.243	0.0498157
878.418	0.0495365
878.592	0.049383
878.767	0.04915332
878.941	0.04914325
879.116	0.04907869
879.29	0.04901873
879.464	0.04894505
879.639	0.04882629
879.813	0.04879769
879.987	0.04879415
880.162	0.04856734
880.336	0.04825623
880.51	0.04804984
880.685	0.04778742
880.859	0.04760062
881.033	0.04715461
881.207	0.04685638
881.381	0.04665418
881.556	0.0465944
881.73	0.04646453
881.904	0.0463854
882.078	0.04631544
882.252	0.04623921
882.426	0.04623437
882.6	0.04623897
882.774	0.04610738
882.948	0.04610772
883.122	0.04587239
883.296	0.04567907
883.47	0.04556979
883.644	0.04537336
883.818	0.04502769
883.992	0.0449662
884.166	0.04468959
884.34	0.04457945
884.514	0.04439144
884.687	0.04423999
884.861	0.04408556
885.035	0.04399964
885.209	0.04385734
885.382	0.04374709
885.556	0.04364634
885.73	0.04361761
885.904	0.0435383
886.077	0.043395
886.251	0.0432446
886.425	0.04294
886.598	0.04275921
886.772	0.04251006
886.945	0.04224837
887.119	0.04200458
887.292	0.04192454
887.466	0.04178409
887.64	0.04173692
887.813	0.04166338
887.986	0.04162598
888.16	0.04155898
888.333	0.04140272
888.507	0.04116943
888.68	0.04102395
888.854	0.04090441
889.027	0.04065082
889.2	0.04051276
889.374	0.04036976
889.547	0.04024551
889.72	0.04017487
889.893	0.04007048
890.067	0.0398607
890.24	0.03973207
890.413	0.0395957
890.586	0.03940687
890.759	0.03933883
890.933	0.03917262
891.106	0.0390772
891.279	0.03900267
891.452	0.03889751
891.625	0.0387968
891.798	0.03869526
891.971	0.03857883
892.144	0.03843345
892.317	0.03828078
892.49	0.03819256
892.663	0.03801588
892.836	0.03777085
893.009	0.03778736
893.182	0.0375493
893.355	0.03736317
893.527	0.03729077
893.7	0.03713254
893.873	0.03707272
894.046	0.03694805
894.219	0.03663925
894.391	0.03655062
894.564	0.03645478
894.737	0.03617591
894.91	0.03600611
895.082	0.03581559
895.255	0.03573196
895.428	0.03561488
895.6	0.03541789
895.773	0.03530774
895.945	0.03520796
896.118	0.03510637
896.291	0.03510621
896.463	0.03498892
896.636	0.034897
896.808	0.03478977
896.981	0.03468134
897.153	0.03457701
897.326	0.03447445
897.498	0.03427214
897.67	0.03411405
897.843	0.03390188
898.015	0.033843
898.187	0.03372654
898.36	0.03347342
898.532	0.03332739
898.704	0.03313618
898.877	0.03304012
899.049	0.03297217
899.221	0.03289251
899.393	0.03279692
899.566	0.03280757
899.738	0.03268086
899.91	0.03263238
900.082	0.03251243
900.254	0.0324478
900.426	0.03233179
900.598	0.0321169
900.77	0.03192991
900.942	0.03182112
901.114	0.03164517
901.286	0.03149378
901.458	0.03135967
901.63	0.03116646
901.802	0.03120449
901.974	0.03120908
902.146	0.03107424
902.318	0.03105577
902.49	0.03096874
902.662	0.0308093
902.834	0.03067282
903.005	0.03047807
903.177	0.0303621
903.349	0.03031745
903.521	0.03013605
903.693	0.02992262
903.864	0.02988569
904.036	0.02981409
904.208	0.02973641
904.379	0.02950406
904.551	0.02933243
904.723	0.02926147
904.894	0.0291351
905.066	0.02899212
905.237	0.02895098
905.409	0.02882129
905.58	0.0288592
905.752	0.02883502
905.923	0.02870384
906.095	0.02875857
906.266	0.02867342
906.438	0.02850654
906.609	0.0283682
906.78	0.02814082
906.952	0.02790248
907.123	0.02787103
907.295	0.02761542
907.466	0.02749479
907.637	0.02737571
907.808	0.02716688
907.98	0.02716686
908.151	0.02718542
908.322	0.02704741
908.493	0.02707548
908.665	0.02696319
908.836	0.02697229
909.007	0.02696877
909.178	0.02673795
909.349	0.0265305
909.52	0.02640774
909.691	0.02616487
909.862	0.0260671
910.033	0.02585816
910.204	0.02583082
910.375	0.02587532
910.546	0.02596211
910.717	0.02584909
910.888	0.02593643
911.059	0.02588407
911.23	0.02591398
911.401	0.02574678
911.572	0.02562911
911.742	0.02550564
911.913	0.02544394
912.084	0.02526184
912.255	0.02509179
912.426	0.0247985
912.596	0.02466994
912.767	0.02456771
912.938	0.02440004
913.108	0.02423625
913.279	0.02421386
913.45	0.02413282
913.62	0.0242794
913.791	0.02417887
913.962	0.02411022
914.132	0.02396253
914.303	0.02390738
914.473	0.02369406
914.644	0.02358065
914.814	0.02323848
914.985	0.02317311
915.155	0.02300246
915.326	0.02287466
915.496	0.02276208
915.666	0.02270772
915.837	0.0226084
916.007	0.02262973
916.177	0.02253365
916.348	0.02242289
916.518	0.0224181
916.688	0.02234479
916.858	0.02219197
917.029	0.02220953
917.199	0.02212973
917.369	0.0221057
917.539	0.02211812
917.709	0.02202074
917.88	0.02194327
918.05	0.02195625
918.22	0.02175574
918.39	0.02159397
918.56	0.02150142
918.73	0.02137037
918.9	0.02121527
919.07	0.0210912
919.24	0.02102443
919.41	0.02102953
919.58	0.02110828
919.75	0.02102273
919.92	0.02090225
920.09	0.0209281
920.26	0.02093988
920.429	0.02082264
920.599	0.02078019
920.769	0.02069795
920.939	0.02064849
921.109	0.02052811
921.278	0.02031038
921.448	0.02024352
921.618	0.02008106
921.787	0.01994591
921.957	0.01972109
922.127	0.01954025
922.296	0.0195466
922.466	0.01952919
922.636	0.0194455
922.805	0.01953095
922.975	0.01937118
923.144	0.01930704
923.314	0.01922209
923.483	0.01911846
923.653	0.01889282
923.822	0.0185953
923.992	0.0184294
924.161	0.01825925
924.331	0.01818049
924.5	0.01820151
924.669	0.01807297
924.839	0.01801466
925.008	0.01817974
925.177	0.01804702
925.347	0.01808926
925.516	0.0180883
925.685	0.01807191
925.854	0.01816176
926.023	0.018276
926.193	0.01804692
926.362	0.01808697
926.531	0.01805041
926.7	0.01783956
926.869	0.01755476
927.038	0.01731851
927.207	0.01720186
927.376	0.01729273
927.545	0.01719533
927.715	0.01716283
927.884	0.01728541
928.052	0.01750533
928.221	0.01750047
928.39	0.01746647
928.559	0.01737873
928.728	0.01731399
928.897	0.01722419
929.066	0.01719027
929.235	0.01710321
929.404	0.01715844
929.572	0.01719429
929.741	0.01716703
929.91	0.01703985
930.079	0.017003
930.247	0.01689751
930.416	0.016654
930.585	0.01655005
930.753	0.01645992
930.922	0.0165176
931.091	0.01654302
931.259	0.01652471
931.428	0.01657098
931.596	0.01655705
931.765	0.01653572
931.934	0.01647709
932.102	0.01632601
932.27	0.01632925
932.439	0.01625994
932.607	0.01614478
932.776	0.01614936
932.944	0.01609823
933.113	0.01584837
933.281	0.01580807
933.449	0.01574858
933.618	0.01576126
933.786	0.01568716
933.954	0.01560188
934.123	0.01534522
934.291	0.01563769
934.459	0.01558349
934.627	0.01560058
934.795	0.01550278
934.964	0.01560309
935.132	0.01567265
935.3	0.01584905
935.468	0.01572139
935.636	0.01549552
935.804	0.01524453
935.972	0.01521374
936.14	0.01487127
936.308	0.01482331
936.476	0.01475685
936.644	0.01460479
936.812	0.01482856
936.98	0.01494814
937.148	0.01483722
937.316	0.01500276
937.484	0.01490393
937.652	0.01492628
937.82	0.01505984
937.987	0.01512546
938.155	0.01511823
938.323	0.01515851
938.491	0.0152308
938.658	0.01545351
938.826	0.01564863
938.994	0.01599763
939.162	0.01577219
939.329	0.01561426
939.497	0.01627426
939.665	0.01609955
939.832	0.01619636
940	0.0158482
940.167	0.01577156
940.335	0.01596964
940.502	0.0163717
940.67	0.01573063
940.837	0.01657022
941.005	0.01617277
941.172	0.01656311
941.34	0.01629522
941.507	0.01706575
941.674	0.01763904
941.842	0.01816802
942.009	0.01761388
942.177	0.01807401
942.344	0.01874359
942.511	0.01871775
942.678	0.0184961
942.846	0.01811142
943.013	0.01779265
943.18	0.01815048
943.347	0.01795439
943.514	0.01760293
943.682	0.01780954
943.849	0.01740977
944.016	0.01654455
944.183	0.01696489
944.35	0.01750224
944.517	0.01780288
944.684	0.01800792
944.851	0.01761708
945.018	0.01830636
945.185	0.01892686
945.352	0.01868036
945.519	0.01787742
945.686	0.01723932
945.853	0.01716866
946.02	0.0173378
946.187	0.01711306
946.353	0.01731625
946.52	0.01703574
946.687	0.01721735
946.854	0.01748636
947.021	0.01757139
947.187	0.01749482
947.354	0.01659932
947.521	0.01693774
947.687	0.01696631
947.854	0.01606453
948.021	0.01583769
948.187	0.01534134
948.354	0.01543055
948.52	0.01543263
948.687	0.01513353
948.854	0.01456856
949.02	0.01585311
949.187	0.01678192
949.353	0.01659384
949.52	0.01635304
949.686	0.01630822
949.852	0.0157974
950.019	0.01546629
950.185	0.01435196
950.352	0.01339985
950.518	0.01302801
950.684	0.01320485
950.851	0.01316373
951.017	0.01210066
951.183	0.01240828
951.349	0.0120165
951.516	0.01185374
951.682	0.01221826
951.848	0.01199641
952.014	0.01155854
952.18	0.01210852
952.346	0.01223598
952.512	0.01201418
952.679	0.01184837
952.845	0.01134694
953.011	0.01132812
953.177	0.01171475
953.343	0.01208274
953.509	0.0119357
953.675	0.01245295
953.841	0.01251001
954.007	0.01252595
954.172	0.01241182
954.338	0.011942
954.504	0.01181697
954.67	0.01204032
954.836	0.0115793
955.002	0.01168551
955.167	0.01166941
955.333	0.01175513
955.499	0.01216942
955.665	0.01174891
955.83	0.01113292
955.996	0.01125144
956.162	0.01062062
956.327	0.01109913
956.493	0.01066449
956.659	0.00990219
956.824	0.01034855
956.99	0.01033589
957.155	0.01001303
957.321	0.01029423
957.486	0.00998196
957.652	0.00971003
957.817	0.0104135
957.983	0.00994343
958.148	0.01035096
958.314	0.01096519
958.479	0.01082327
958.644	0.01061889
958.81	0.0109412
958.975	0.01068738
959.14	0.01063114
959.306	0.01010658
959.471	0.00950625
959.636	0.00930755
959.801	0.00928847
959.967	0.00884249
960.132	0.00881138
960.297	0.00891825
960.462	0.00916897
960.627	0.00907546
960.792	0.00925738
960.957	0.00919133
961.123	0.00923216
961.288	0.00915617
961.453	0.00946662
961.618	0.00913097
961.783	0.00922571
961.948	0.00897348
962.113	0.008782
962.277	0.00862589
962.442	0.0082727
962.607	0.00756722
962.772	0.00777546
962.937	0.00761041
963.102	0.0074986
963.267	0.00759771
963.431	0.00769706
963.596	0.00755441
963.761	0.00787166
963.926	0.00797465
964.09	0.00810355
964.255	0.00841753
964.42	0.00831055
964.584	0.0083663
964.749	0.00872592
964.914	0.00855419
965.078	0.00819369
965.243	0.00837132
965.407	0.00804124
965.572	0.00806735
965.736	0.00819233
965.901	0.00809111
966.065	0.00830815
966.23	0.00839882
966.394	0.00825608
966.559	0.00820257
966.723	0.00786121
966.887	0.00722031
967.052	0.00724915
967.216	0.00701714
967.38	0.007091
967.545	0.00681328
967.709	0.00674715
967.873	0.00704885
968.037	0.00769996
968.202	0.00761362
968.366	0.00747565
968.53	0.00747272
968.694	0.00747712
968.858	0.00761906
969.022	0.0073936
969.187	0.00709237
969.351	0.00675038
969.515	0.00685183
969.679	0.00653488
969.843	0.00651135
970.007	0.00637476
970.171	0.00638033
970.335	0.006173
970.499	0.00653155
970.662	0.00646742
970.826	0.00654419
970.99	0.00660224
971.154	0.00659805
971.318	0.00680741
971.482	0.0068268
971.645	0.006845
971.809	0.00633921
971.973	0.00624395
972.137	0.00608626
972.3	0.00594204
972.464	0.00591628
972.628	0.00619744
972.791	0.00619586
972.955	0.00640692
973.119	0.006704
973.282	0.00679353
973.446	0.00734112
973.609	0.00731584
973.773	0.00685607
973.936	0.00672059
974.1	0.00703868
974.263	0.00703271
974.427	0.00708893
974.59	0.00657457
974.754	0.0061485
974.917	0.0060966
975.08	0.00631304
975.244	0.00579111
975.407	0.00561487
975.57	0.00522769
975.734	0.00540088
975.897	0.00560607
976.06	0.00581279
976.223	0.00535645
976.387	0.00539125
976.55	0.00547281
976.713	0.00586078
976.876	0.00581704
977.039	0.00601154
977.202	0.00598549
977.365	0.00610804
977.528	0.00655462
977.692	0.00618761
977.855	0.00633708
978.018	0.00615311
978.181	0.00582584
978.344	0.00609017
978.506	0.0058501
978.669	0.00582128
978.832	0.00611676
978.995	0.00560683
979.158	0.00571481
979.321	0.00557912
979.484	0.00534054
979.646	0.00543378
979.809	0.00524696
979.972	0.00512154
980.135	0.00530046
980.297	0.00553304
980.46	0.00529769
980.623	0.0057195
980.786	0.00606598
980.948	0.0059093
981.111	0.00576821
981.273	0.00582489
981.436	0.00557544
981.599	0.00624796
981.761	0.00566931
981.924	0.00571169
982.086	0.00588519
982.249	0.00601994
982.411	0.00582279
982.573	0.00613763
982.736	0.00588606
982.898	0.00609708
983.061	0.00561722
983.223	0.00523714
983.385	0.00462547
983.548	0.00455365
983.71	0.00446769
983.872	0.00442963
984.034	0.00430632
984.197	0.00413405
984.359	0.00428954
984.521	0.00469244
984.683	0.00487313
984.845	0.00510704
985.008	0.00479538
985.17	0.00454237
985.332	0.00487439
985.494	0.00550046
985.656	0.00582828
985.818	0.00602351
985.98	0.00523405
986.142	0.00522909
986.304	0.00540321
986.466	0.00533769
986.628	0.00500391
986.79	0.00423606
986.952	0.00411513
987.113	0.00436879
987.275	0.00458178
987.437	0.0049642
987.599	0.00504085
987.761	0.00498644
987.922	0.00523775
988.084	0.00535051
988.246	0.00514305
988.408	0.00536422
988.569	0.0048588
988.731	0.00503775
988.893	0.00480855
989.054	0.00518974
989.216	0.0050872
989.377	0.0055369
989.539	0.00547306
989.701	0.00583056
989.862	0.00579908
990.024	0.00597386
990.185	0.00577997
990.347	0.00611321
990.508	0.00598255
990.669	0.00549457
990.831	0.00506386
990.992	0.00437922
991.154	0.00443603
991.315	0.00468201
991.476	0.0041306
991.638	0.00403117
991.799	0.00438399
991.96	0.00456119
992.121	0.00480195
992.283	0.00513561
992.444	0.00525235
992.605	0.00537735
992.766	0.00558036
992.927	0.0056491
993.088	0.00587107
993.249	0.00612364
993.41	0.00626241
993.572	0.0060791
993.733	0.00656202
993.894	0.00624396
994.055	0.00654004
994.216	0.00664161
994.376	0.00663017
994.537	0.00641882
994.698	0.00655775
994.859	0.00593977
995.02	0.00564656
995.181	0.00549232
995.342	0.00573737
995.503	0.00561826
995.663	0.00576621
995.824	0.00554296
995.985	0.00615035
996.146	0.00605498
996.306	0.00608498
996.467	0.00537769
996.628	0.00551069
996.788	0.00545572
996.949	0.00583675
997.11	0.00605948
997.27	0.00705548
997.431	0.00670875
997.591	0.00696583
997.752	0.00671793
997.912	0.00641611
998.073	0.00659265
998.233	0.00606624
998.394	0.00626254
998.554	0.00657862
998.714	0.00710461
998.875	0.00706822
999.035	0.00729283
999.196	0.00695845
999.356	0.0072071
999.516	0.00731777
999.676	0.00685773
999.837	0.00612687
999.997	0.00716528
1000.157	0.00708527
1000.317	0.00702671
1000.477	0.00711355
1000.638	0.00670456
1000.798	0.00708324
1000.958	0.00777303
1001.118	0.00682903
1001.278	0.00591685
1001.438	0.00585166
1001.598	0.00523642
1001.758	0.00551811
1001.918	0.00538698
1002.078	0.00559298
1002.238	0.00499583
1002.398	0.0052966
1002.558	0.00649793
1002.718	0.0072686
1002.878	0.0065827
1003.037	0.00716383
1003.197	0.00638532
1003.357	0.00665658
1003.517	0.00721186
1003.677	0.00621211
1003.836	0.00639651
1003.996	0.00659855
1004.156	0.0059782
1004.315	0.00574762
1004.475	0.00635802
1004.635	0.00691429
1004.794	0.00717068
1004.954	0.00672426
1005.114	0.00691516
1005.273	0.00689805
1005.433	0.00793546
1005.592	0.00912904
1005.752	0.00775017
1005.911	0.00702852
1006.071	0.00708754
1006.23	0.00651724
1006.389	0.00713415
1006.549	0.00684097
1006.708	0.00485184
1006.868	0.00649412
1007.027	0.0068521
1007.186	0.00653057
1007.345	0.00750428
1007.505	0.0082871
1007.664	0.00759557
1007.823	0.00824317
1007.982	0.0081231
1008.142	0.00927862
1008.301	0.00849126
1008.46	0.00761009
1008.619	0.00654811
1008.778	0.00706364
1008.937	0.00856317
1009.096	0.00769861
1009.255	0.00597215
1009.414	0.00651422
1009.573	0.00637673
1009.732	0.00661957
1009.891	0.00710348
1010.05	0.00670397
1010.209	0.00716831
1010.368	0.00898658
1010.527	0.00957906
1010.686	0.00982134
1010.845	0.00938378
1011.003	0.0088846
1011.162	0.0080373
1011.321	0.00763106
1011.48	0.00630255
1011.638	0.0077252
1011.797	0.00699146
1011.956	0.00652812
1012.115	0.00656963
1012.273	0.00701754
1012.432	0.00716006
1012.59	0.00648543
1012.749	0.00537353
1012.908	0.00749896
1013.066	0.00751168
1013.225	0.00712202
1013.383	0.00605144
1013.542	0.00647249
1013.7	0.00745717
1013.859	0.00718807
1014.017	0.00634631
1014.175	0.00771017
1014.334	0.00930445
1014.492	0.01104474
1014.65	0.01091271
1014.809	0.01116401
1014.967	0.01061466
1015.125	0.01119036
1015.284	0.01183378
1015.442	0.0103208
1015.6	0.01032634
1015.758	0.01203353
1015.916	0.01252348
1016.075	0.01478181
1016.233	0.01420154
1016.391	0.0137309
1016.549	0.01496816
1016.707	0.01390325
1016.865	0.01233949
1017.023	0.01164512
1017.181	0.01229275
1017.339	0.01153772
1017.497	0.0096045
1017.655	0.01073836
1017.813	0.01203101
1017.971	0.01401246
1018.129	0.01311109
1018.286	0.01027051
1018.444	0.01079706
1018.602	0.01208467
1018.76	0.01143349
1018.918	0.00997727
1019.075	0.00757079
1019.233	0.01105001
1019.391	0.01386848
1019.549	0.01414149
1019.706	0.0128205
1019.864	0.01131561
1020.022	0.01146652
1020.179	0.01153535
1020.337	0.00954762
1020.494	0.00942838
1020.652	0.01094479
1020.809	0.01510191
1020.967	0.0181746
1021.124	0.01767702
1021.282	0.02028188
1021.439	0.0189464
1021.597	0.01882996
1021.754	0.01702864
1021.911	0.01616767
1022.069	0.01414791
1022.226	0.01708703
1022.384	0.01221399
1022.541	0.0152906
1022.698	0.0147732
1022.855	0.01621984
1023.013	0.01600424
1023.17	0.01443383
1023.327	0.01256573
1023.484	0.0157662
1023.641	0.01395239
1023.798	0.01038304
1023.956	0.01323781
1024.113	0.0113627
1024.27	0.01587747
1024.427	0.01642654
1024.584	0.01930592
1024.741	0.0188057
1024.898	0.02123529
1025.055	0.0171548
1025.212	0.0181525
1025.369	0.01359235
1025.525	0.0111069
1025.682	0.0088522
1025.839	0.01039693
1025.996	0.01217855
1026.153	0.01538972
1026.31	0.01654856
1026.466	0.02142413
1026.623	0.02469286
1026.78	0.02817373
1026.937	0.02803052
1027.093	0.03053514
1027.25	0.02582874
1027.407	0.02509055
1027.563	0.02393204
1027.72	0.02302461
1027.876	0.02274102
1028.033	0.02714982
1028.19	0.01866193
1028.346	0.02052758
1028.503	0.02001145
1028.659	0.01795809
1028.816	0.02025273
1028.972	0.01440072
1029.128	0.01187359
1029.285	0.01714391
1029.441	0.01824456
1029.598	0.02110015
1029.754	0.02094066
1029.91	0.0219235
1030.067	0.0179706
1030.223	0.0159794
1030.379	0.00896788
1030.535	0.01046261
1030.691	0.0085871
1030.848	0.01414963
1031.004	0.01493476
1031.16	0.02464467
1031.316	0.02628789
1031.472	0.03847491
1031.628	0.037052
1031.784	0.03789222
1031.94	0.0329467
1032.096	0.03639403
1032.252	0.03036064
1032.408	0.0352802
1032.564	0.03024015
1032.72	0.03026418
1032.876	0.03235584
1033.032	0.03205244
1033.188	0.02521201
1033.344	0.02926981
1033.5	0.0224192
1033.655	0.02261239
1033.811	0.02213396
1033.967	0.01721181
