Data from 0_1_mm_pl_20pc_Absorbance__0__18-50-28-976.txt Node

Date: Wed Mar 01 18:50:28 CET 2023
User: Ange
Spectrometer: FLMT08341
Trigger mode: 0
Integration Time (sec): 1.000000E-2
Scans to average: 400
Electric dark correction enabled: true
Nonlinearity correction enabled: false
Boxcar width: 3
XAxis mode: Wavelengths
Number of Pixels in Spectrum: 3648
>>>>>Begin Spectral Data<<<<<
345.271	-0.0088605
345.487	-0.00964183
345.704	-0.01632154
345.921	-0.01537598
346.137	-0.02806693
346.354	-0.03392768
346.571	-0.04088801
346.787	-0.123884
347.004	0.03343035
347.22	0.09876923
347.437	0.25458212
347.653	0.2302371
347.87	0.05213561
348.086	0.15486689
348.303	-0
348.519	0.01752655
348.736	0.03332298
348.952	0.03355871
349.169	0.03378464
349.385	0.0350463
349.601	0.03353308
349.818	0.03235497
350.034	0.03625632
350.251	0.03661872
350.467	0.03924425
350.683	0.03758709
350.9	0.03666135
351.116	0.03671563
351.332	0.03792159
351.549	0.03804696
351.765	0.04002506
351.981	0.03847897
352.197	0.0400361
352.414	0.04030775
352.63	0.04043895
352.846	0.04060862
353.062	0.03935682
353.278	0.03701271
353.495	0.03934999
353.711	0.04068275
353.927	0.04098247
354.143	0.04110008
354.359	0.04048486
354.575	0.04229036
354.792	0.04439914
355.008	0.04348117
355.224	0.04161086
355.44	0.04031523
355.656	0.03911318
355.872	0.03901033
356.088	0.0388192
356.304	0.0382169
356.52	0.03724087
356.736	0.0375607
356.952	0.03975156
357.168	0.04116856
357.384	0.0400098
357.6	0.03891667
357.816	0.04013808
358.032	0.0411069
358.248	0.04357433
358.464	0.04323203
358.679	0.04457348
358.895	0.04639604
359.111	0.04849908
359.327	0.04789538
359.543	0.0493569
359.759	0.04789947
359.974	0.04803531
360.19	0.04759208
360.406	0.04731894
360.622	0.04689854
360.838	0.0473062
361.053	0.04659253
361.269	0.04791279
361.485	0.04872383
361.701	0.04961528
361.916	0.05126383
362.132	0.05133942
362.348	0.05178156
362.563	0.05182555
362.779	0.0505839
362.995	0.05146182
363.21	0.05171908
363.426	0.04989378
363.641	0.05062571
363.857	0.05039161
364.073	0.04999647
364.288	0.0508577
364.504	0.04975326
364.719	0.04926806
364.935	0.05090175
365.15	0.05096376
365.366	0.05115171
365.581	0.05216903
365.797	0.05300029
366.012	0.05257397
366.228	0.05315594
366.443	0.05372172
366.658	0.05311877
366.874	0.05274027
367.089	0.05303951
367.305	0.05342127
367.52	0.05432411
367.735	0.05488876
367.951	0.05389138
368.166	0.0546675
368.381	0.05629847
368.597	0.05689434
368.812	0.05720856
369.027	0.05707927
369.243	0.05625862
369.458	0.05688911
369.673	0.05773308
369.888	0.05687375
370.104	0.05680548
370.319	0.05601758
370.534	0.05715819
370.749	0.05767957
370.964	0.05871309
371.179	0.0586893
371.395	0.05921431
371.61	0.05904117
371.825	0.05950359
372.04	0.06087196
372.255	0.06128574
372.47	0.0610439
372.685	0.06038228
372.9	0.06070378
373.115	0.06108221
373.33	0.06256731
373.545	0.06239722
373.76	0.06323485
373.975	0.06264082
374.19	0.06235857
374.405	0.06196989
374.62	0.06186867
374.835	0.06144324
375.05	0.06119771
375.265	0.06140855
375.48	0.06209549
375.695	0.06373077
375.91	0.06393765
376.125	0.06371056
376.339	0.0634074
376.554	0.06302788
376.769	0.06235799
376.984	0.06316202
377.199	0.06359138
377.414	0.06414822
377.628	0.06490676
377.843	0.06508846
378.058	0.0658033
378.273	0.06711285
378.487	0.06645719
378.702	0.0662195
378.917	0.06646161
379.131	0.06698454
379.346	0.06660364
379.561	0.06608859
379.775	0.06564983
379.99	0.06633978
380.205	0.06690616
380.419	0.06746689
380.634	0.06688339
380.848	0.06774082
381.063	0.06823575
381.278	0.06954747
381.492	0.06953566
381.707	0.06941328
381.921	0.0692116
382.136	0.07066759
382.35	0.07080965
382.565	0.07087666
382.779	0.06996589
382.994	0.07017863
383.208	0.07068449
383.422	0.07128005
383.637	0.07017228
383.851	0.07046298
384.066	0.07132939
384.28	0.07178239
384.494	0.07242008
384.709	0.0724876
384.923	0.07279135
385.137	0.07333223
385.352	0.07332481
385.566	0.07346755
385.78	0.07326721
385.995	0.07337649
386.209	0.07329257
386.423	0.07361253
386.637	0.07446487
386.852	0.07421678
387.066	0.0742893
387.28	0.07441699
387.494	0.07473042
387.708	0.07506955
387.923	0.07467189
388.137	0.07459999
388.351	0.07538909
388.565	0.07557477
388.779	0.07619008
388.993	0.07671541
389.207	0.07675894
389.421	0.0771349
389.635	0.0770522
389.85	0.07746774
390.064	0.07736428
390.278	0.07738391
390.492	0.07719974
390.706	0.07739674
390.92	0.07744372
391.134	0.07806722
391.348	0.07816773
391.561	0.07821552
391.775	0.07855677
391.989	0.07842599
392.203	0.07861064
392.417	0.07889994
392.631	0.07894028
392.845	0.07922819
393.059	0.0800709
393.273	0.07973869
393.486	0.07940714
393.7	0.07963284
393.914	0.08025231
394.128	0.0804195
394.342	0.08015307
394.555	0.07970431
394.769	0.07979576
394.983	0.08058321
395.197	0.0810494
395.41	0.08078561
395.624	0.08108883
395.838	0.0812131
396.051	0.08133039
396.265	0.08177815
396.479	0.08175572
396.692	0.08160333
396.906	0.08186946
397.12	0.08196828
397.333	0.08269553
397.547	0.08284724
397.76	0.0830115
397.974	0.08322414
398.187	0.08355112
398.401	0.08389269
398.614	0.08410531
398.828	0.08359965
399.041	0.08381956
399.255	0.084037
399.468	0.08434534
399.682	0.08432864
399.895	0.08401953
400.109	0.08386444
400.322	0.08388984
400.536	0.08400834
400.749	0.08416285
400.962	0.0840785
401.176	0.0839075
401.389	0.08432221
401.602	0.08408914
401.816	0.08434432
402.029	0.08443933
402.242	0.08439205
402.456	0.0843481
402.669	0.0844894
402.882	0.08414895
403.095	0.08424182
403.309	0.08464495
403.522	0.08486757
403.735	0.08471335
403.948	0.08489518
404.161	0.08520562
404.375	0.08539744
404.588	0.08579753
404.801	0.08548393
405.014	0.08528933
405.227	0.08553079
405.44	0.08561345
405.653	0.08576108
405.866	0.08589792
406.079	0.08581628
406.293	0.08595049
406.506	0.08601922
406.719	0.08573515
406.932	0.08577117
407.145	0.08540528
407.358	0.08525027
407.571	0.08530302
407.784	0.08539071
407.996	0.08543338
408.209	0.08540098
408.422	0.08526975
408.635	0.08533105
408.848	0.08551114
409.061	0.08503429
409.274	0.08447058
409.487	0.08416839
409.7	0.08441914
409.912	0.08440705
410.125	0.08454508
410.338	0.08408987
410.551	0.08433908
410.764	0.08470465
410.976	0.08459971
411.189	0.08438857
411.402	0.08430123
411.615	0.08419781
411.827	0.08422065
412.04	0.08405483
412.253	0.08407024
412.465	0.08430534
412.678	0.08416569
412.891	0.08415819
413.103	0.08402077
413.316	0.08384931
413.529	0.08389701
413.741	0.08390079
413.954	0.08380518
414.166	0.08382709
414.379	0.0835009
414.591	0.08330652
414.804	0.08309962
415.016	0.08290307
415.229	0.08253664
415.441	0.08204842
415.654	0.08164674
415.866	0.08153767
416.079	0.08153452
416.291	0.08161408
416.504	0.08156784
416.716	0.08160547
416.928	0.08147066
417.141	0.08153225
417.353	0.08161823
417.566	0.08109252
417.778	0.08078326
417.99	0.08052721
418.203	0.08007418
418.415	0.0802158
418.627	0.08033287
418.839	0.08018364
419.052	0.08026404
419.264	0.08029228
419.476	0.08020283
419.688	0.0801013
419.901	0.07992327
420.113	0.07948993
420.325	0.07923268
420.537	0.07896995
420.749	0.07890377
420.961	0.07884875
421.174	0.07885359
421.386	0.07849499
421.598	0.07815995
421.81	0.07783806
422.022	0.07769894
422.234	0.07739556
422.446	0.07702469
422.658	0.0766497
422.87	0.07648618
423.082	0.07644989
423.294	0.07625374
423.506	0.076239
423.718	0.07603529
423.93	0.07570505
424.142	0.07545297
424.354	0.07523078
424.566	0.0748417
424.778	0.07480229
424.99	0.07426764
425.202	0.07420126
425.414	0.07401805
425.625	0.07373052
425.837	0.07320476
426.049	0.07291313
426.261	0.07250741
426.473	0.07237011
426.684	0.0718726
426.896	0.07170874
427.108	0.07141086
427.32	0.07152928
427.531	0.07159235
427.743	0.07116679
427.955	0.07093494
428.167	0.07071006
428.378	0.07038528
428.59	0.07013773
428.802	0.06977769
429.013	0.06937898
429.225	0.06919654
429.436	0.06892168
429.648	0.06866296
429.86	0.06843123
430.071	0.06827427
430.283	0.06815094
430.494	0.06767158
430.706	0.06735889
430.917	0.0670875
431.129	0.06675924
431.34	0.06641543
431.552	0.06617128
431.763	0.06584314
431.975	0.06570193
432.186	0.0654301
432.398	0.06510858
432.609	0.0648154
432.821	0.06450046
433.032	0.06416679
433.243	0.06381311
433.455	0.06361017
433.666	0.06333961
433.877	0.06312252
434.089	0.06292216
434.3	0.06268968
434.511	0.06243864
434.723	0.06216177
434.934	0.06222998
435.145	0.06209227
435.356	0.0617307
435.568	0.06148118
435.779	0.0614347
435.99	0.06125055
436.201	0.06125747
436.412	0.06071426
436.624	0.06034453
436.835	0.0603924
437.046	0.05997037
437.257	0.05940532
437.468	0.05924195
437.679	0.05878839
437.89	0.05829077
438.101	0.05811292
438.312	0.05773414
438.523	0.05763098
438.734	0.05753574
438.945	0.0570293
439.156	0.05661919
439.367	0.05647232
439.578	0.05611183
439.789	0.05550896
440	0.05498891
440.211	0.05447089
440.422	0.05391169
440.633	0.05342466
440.844	0.05309935
441.055	0.05256336
441.266	0.05222768
441.477	0.0518636
441.687	0.05157864
441.898	0.05144461
442.109	0.051137
442.32	0.05072322
442.531	0.05033617
442.741	0.04999376
442.952	0.04968479
443.163	0.04940894
443.374	0.04896018
443.584	0.04868671
443.795	0.04832706
444.006	0.04824581
444.216	0.04784517
444.427	0.04752703
444.638	0.04708448
444.848	0.04673193
445.059	0.04631205
445.27	0.04588283
445.48	0.0453463
445.691	0.04500922
445.901	0.04474563
446.112	0.04439725
446.323	0.04405552
446.533	0.04363847
446.744	0.04337799
446.954	0.04319849
447.165	0.04284111
447.375	0.04244844
447.586	0.04211931
447.796	0.04170978
448.006	0.04154013
448.217	0.04126443
448.427	0.04092363
448.638	0.0408469
448.848	0.04051232
449.058	0.04017467
449.269	0.04005101
449.479	0.03969344
449.689	0.03933661
449.9	0.03903311
450.11	0.03874479
450.32	0.03848744
450.531	0.03833168
450.741	0.03797453
450.951	0.03775746
451.161	0.03748655
451.372	0.03713121
451.582	0.03684405
451.792	0.03658494
452.002	0.03630288
452.212	0.03594792
452.422	0.0357157
452.633	0.03546161
452.843	0.03524165
453.053	0.03476381
453.263	0.03452027
453.473	0.03416341
453.683	0.0339524
453.893	0.03352343
454.103	0.03323654
454.313	0.03298769
454.523	0.03273475
454.733	0.032497
454.943	0.03223344
455.153	0.03210528
455.363	0.03193629
455.573	0.03148504
455.783	0.03122905
455.993	0.03097085
456.203	0.03063688
456.413	0.03039934
456.623	0.0300082
456.833	0.02967438
457.042	0.02949789
457.252	0.02920447
457.462	0.02898675
457.672	0.02871284
457.882	0.02849416
458.091	0.02832723
458.301	0.02816251
458.511	0.02795299
458.721	0.02775571
458.931	0.0275544
459.14	0.02735058
459.35	0.02710646
459.56	0.02684432
459.769	0.02672284
459.979	0.0265988
460.189	0.02621359
460.398	0.0260701
460.608	0.02588203
460.817	0.02567687
461.027	0.02547509
461.237	0.02515405
461.446	0.02502859
461.656	0.02477324
461.865	0.02432596
462.075	0.02413433
462.284	0.02386013
462.494	0.02370027
462.703	0.02349173
462.913	0.02311978
463.122	0.02309725
463.332	0.02313534
463.541	0.02294175
463.751	0.02278239
463.96	0.02253522
464.169	0.02233725
464.379	0.02230089
464.588	0.02209372
464.797	0.02179476
465.007	0.02156506
465.216	0.0213896
465.425	0.02123527
465.635	0.02100033
465.844	0.02083799
466.053	0.02053797
466.263	0.02039185
466.472	0.0202452
466.681	0.02012962
466.89	0.01994894
467.099	0.01992363
467.309	0.01969106
467.518	0.01965258
467.727	0.01947124
467.936	0.01935981
468.145	0.01915036
468.354	0.01899765
468.563	0.01883012
468.772	0.01867346
468.982	0.01855472
469.191	0.01836593
469.4	0.01819621
469.609	0.0181361
469.818	0.01798145
470.027	0.017784
470.236	0.01775724
470.445	0.01766816
470.654	0.01761612
470.863	0.01745291
471.072	0.01732227
471.28	0.01713893
471.489	0.01699957
471.698	0.0168115
471.907	0.0165843
472.116	0.01642723
472.325	0.01628058
472.534	0.01607386
472.743	0.0159048
472.951	0.01584152
473.16	0.01566297
473.369	0.01555732
473.578	0.01546465
473.786	0.01547458
473.995	0.01538054
474.204	0.01540923
474.413	0.01533269
474.621	0.01525932
474.83	0.01516522
475.039	0.01517187
475.247	0.01501295
475.456	0.01497757
475.665	0.01477549
475.873	0.01461529
476.082	0.01458354
476.291	0.01458583
476.499	0.01438897
476.708	0.0143069
476.916	0.01420253
477.125	0.01420325
477.333	0.01420184
477.542	0.01402931
477.75	0.0139758
477.959	0.01393684
478.167	0.01382685
478.376	0.01367949
478.584	0.01362351
478.793	0.01352313
479.001	0.01347616
479.209	0.01323829
479.418	0.01311614
479.626	0.01309652
479.834	0.01315502
480.043	0.01311664
480.251	0.01304506
480.459	0.01302297
480.668	0.01310103
480.876	0.01312731
481.084	0.01311168
481.293	0.01302846
481.501	0.01302331
481.709	0.01295868
481.917	0.01300568
482.125	0.01292725
482.334	0.01283429
482.542	0.0127201
482.75	0.01267773
482.958	0.01258367
483.166	0.01259876
483.374	0.01247256
483.583	0.01240642
483.791	0.01232762
483.999	0.01236507
484.207	0.01232899
484.415	0.0122644
484.623	0.01221057
484.831	0.01223419
485.039	0.01226863
485.247	0.01232589
485.455	0.01228373
485.663	0.01224647
485.871	0.01230539
486.079	0.01219511
486.287	0.0121387
486.495	0.01207393
486.702	0.01196858
486.91	0.0118993
487.118	0.01189898
487.326	0.01186671
487.534	0.01190963
487.742	0.01190824
487.95	0.01188634
488.157	0.01193644
488.365	0.01196141
488.573	0.01192792
488.781	0.01190298
488.988	0.01191537
489.196	0.01182733
489.404	0.01183793
489.612	0.01184081
489.819	0.01180343
490.027	0.01189694
490.235	0.01191107
490.442	0.01192032
490.65	0.01196531
490.857	0.0119254
491.065	0.01191346
491.273	0.01195513
491.48	0.01187641
491.688	0.01188132
491.895	0.01189199
492.103	0.01184191
492.31	0.01188104
492.518	0.01187835
492.725	0.0118671
492.933	0.01184983
493.14	0.01183401
493.348	0.01180161
493.555	0.0118982
493.763	0.0119065
493.97	0.01192604
494.177	0.01196463
494.385	0.01200055
494.592	0.01198777
494.8	0.01197621
495.007	0.01189806
495.214	0.01184078
495.422	0.01185076
495.629	0.01186896
495.836	0.01187453
496.043	0.01191167
496.251	0.01192823
496.458	0.01200855
496.665	0.01211424
496.872	0.01217183
497.08	0.01222684
497.287	0.01222308
497.494	0.01225497
497.701	0.01227096
497.908	0.01225216
498.115	0.01229123
498.322	0.01225693
498.53	0.01221771
498.737	0.01230354
498.944	0.01234329
499.151	0.01246354
499.358	0.01255325
499.565	0.0125774
499.772	0.01266449
499.979	0.01266869
500.186	0.01263436
500.393	0.0126633
500.6	0.01267751
500.807	0.01267474
501.014	0.01275785
501.221	0.01276922
501.427	0.01283796
501.634	0.01291811
501.841	0.01299088
502.048	0.01303992
502.255	0.01308894
502.462	0.01308491
502.669	0.01313773
502.875	0.0131998
503.082	0.01325688
503.289	0.01326778
503.496	0.01331331
503.702	0.01338818
503.909	0.01339558
504.116	0.0134204
504.323	0.01345307
504.529	0.0134908
504.736	0.01352361
504.943	0.01356414
505.149	0.01357971
505.356	0.01370798
505.563	0.01378939
505.769	0.01386467
505.976	0.01390194
506.182	0.01395882
506.389	0.01404089
506.595	0.01409373
506.802	0.01407653
507.008	0.01408654
507.215	0.01409028
507.421	0.01412206
507.628	0.01414806
507.834	0.01411829
508.041	0.01419042
508.247	0.0142884
508.454	0.01429997
508.66	0.0143622
508.866	0.01446767
509.073	0.01458694
509.279	0.01471515
509.486	0.01469203
509.692	0.01476752
509.898	0.01492326
510.105	0.0150147
510.311	0.01511982
510.517	0.01521137
510.723	0.01526317
510.93	0.01544096
511.136	0.01547211
511.342	0.01547786
511.548	0.01554483
511.754	0.0155349
511.961	0.01554935
512.167	0.01561866
512.373	0.01562866
512.579	0.01575324
512.785	0.0158611
512.991	0.01593167
513.197	0.01598718
513.404	0.01605661
513.61	0.01610923
513.816	0.0162189
514.022	0.01617561
514.228	0.01625184
514.434	0.01634977
514.64	0.01643856
514.846	0.01650779
515.052	0.01656219
515.258	0.01659534
515.464	0.01675417
515.669	0.0168297
515.875	0.01689547
516.081	0.01701378
516.287	0.01710805
516.493	0.01726227
516.699	0.01734067
516.905	0.01738642
517.111	0.01745615
517.316	0.01746139
517.522	0.0175283
517.728	0.01760373
517.934	0.01764413
518.139	0.01775423
518.345	0.01781533
518.551	0.01791319
518.757	0.01804303
518.962	0.01815933
519.168	0.0182399
519.374	0.01829382
519.579	0.01843458
519.785	0.0185626
519.991	0.01862934
520.196	0.0187189
520.402	0.0187631
520.607	0.01880897
520.813	0.0188428
521.018	0.01886355
521.224	0.01894064
521.429	0.01902601
521.635	0.01909583
521.84	0.0191678
522.046	0.01930096
522.251	0.01947321
522.457	0.01958211
522.662	0.01968449
522.868	0.01980947
523.073	0.01993892
523.279	0.02008314
523.484	0.02013691
523.689	0.02021806
523.895	0.02034378
524.1	0.02041259
524.305	0.02050545
524.511	0.02054423
524.716	0.02061812
524.921	0.02073619
525.126	0.02085084
525.332	0.02088493
525.537	0.0209802
525.742	0.02102581
525.947	0.02115416
526.153	0.02124655
526.358	0.02136091
526.563	0.02141238
526.768	0.02151987
526.973	0.02163995
527.178	0.02179168
527.383	0.02189241
527.588	0.02197653
527.794	0.02204251
527.999	0.02219812
528.204	0.02235272
528.409	0.02243229
528.614	0.02249098
528.819	0.02260445
529.024	0.02274662
529.229	0.02286757
529.434	0.02293984
529.639	0.02300691
529.843	0.02313674
530.048	0.02329946
530.253	0.02343479
530.458	0.02351025
530.663	0.02364268
530.868	0.02377218
531.073	0.02386319
531.278	0.02394321
531.482	0.02399046
531.687	0.02403747
531.892	0.0241804
532.097	0.0243208
532.302	0.02443034
532.506	0.02458034
532.711	0.02472308
532.916	0.02485656
533.12	0.02501301
533.325	0.02511915
533.53	0.02518164
533.734	0.02528678
533.939	0.0253842
534.144	0.02553144
534.348	0.02568353
534.553	0.02574512
534.757	0.02588461
534.962	0.02604189
535.167	0.02616648
535.371	0.02627431
535.576	0.02635763
535.78	0.02645732
535.985	0.02662345
536.189	0.02671049
536.394	0.02684996
536.598	0.02692387
536.803	0.02703777
537.007	0.02716458
537.211	0.02723293
537.416	0.0273458
537.62	0.02744674
537.825	0.02755036
538.029	0.02774072
538.233	0.02787208
538.438	0.02802021
538.642	0.02822385
538.846	0.0283471
539.05	0.02848009
539.255	0.02854816
539.459	0.02868297
539.663	0.02877608
539.867	0.0288721
540.072	0.02895988
540.276	0.02908896
540.48	0.02924458
540.684	0.02934471
540.888	0.02941459
541.092	0.02954371
541.297	0.02964321
541.501	0.02975933
541.705	0.02992611
541.909	0.03002692
542.113	0.03022323
542.317	0.03036841
542.521	0.03052489
542.725	0.03065574
542.929	0.03082805
543.133	0.03092877
543.337	0.03105563
543.541	0.03117417
543.745	0.03131241
543.949	0.03141092
544.153	0.03154101
544.357	0.03170279
544.56	0.03186837
544.764	0.03201025
544.968	0.03211494
545.172	0.03226714
545.376	0.03245423
545.58	0.03261433
545.783	0.0327127
545.987	0.03283479
546.191	0.03299523
546.395	0.03317784
546.598	0.03326541
546.802	0.03346242
547.006	0.03360262
547.21	0.03372567
547.413	0.03380989
547.617	0.03392961
547.821	0.03403827
548.024	0.03418609
548.228	0.03422022
548.431	0.03431916
548.635	0.03445688
548.839	0.03457947
549.042	0.03468096
549.246	0.03481402
549.449	0.03495716
549.653	0.03512249
549.856	0.03530818
550.06	0.03543171
550.263	0.03563087
550.467	0.03579702
550.67	0.03592767
550.874	0.0360541
551.077	0.03621812
551.28	0.03633245
551.484	0.0364741
551.687	0.03657447
551.891	0.0367214
552.094	0.03685682
552.297	0.03700884
552.501	0.03714037
552.704	0.03726078
552.907	0.03737534
553.11	0.0375472
553.314	0.0376813
553.517	0.0378165
553.72	0.03793345
553.923	0.03803574
554.127	0.03819619
554.33	0.03832946
554.533	0.03845908
554.736	0.03856422
554.939	0.03871048
555.142	0.03884129
555.345	0.03896449
555.549	0.03912703
555.752	0.03925779
555.955	0.03933437
556.158	0.03947404
556.361	0.03959743
556.564	0.03973477
556.767	0.03984519
556.97	0.03992989
557.173	0.04008654
557.376	0.04028623
557.579	0.04045668
557.782	0.04062609
557.984	0.04076098
558.187	0.04099473
558.39	0.04116743
558.593	0.04136177
558.796	0.04149463
558.999	0.04162776
559.202	0.04178156
559.404	0.04195499
559.607	0.04206106
559.81	0.0422441
560.013	0.04233616
560.216	0.04250439
560.418	0.04264078
560.621	0.04277735
560.824	0.04292746
561.026	0.04308192
561.229	0.04319636
561.432	0.04334345
561.634	0.0434174
561.837	0.04357201
562.04	0.0437078
562.242	0.04387149
562.445	0.0439784
562.647	0.04411548
562.85	0.04427313
563.053	0.04449303
563.255	0.04464931
563.458	0.0448361
563.66	0.04498872
563.863	0.04516227
564.065	0.04528041
564.268	0.04542541
564.47	0.04552896
564.672	0.04565491
564.875	0.04574711
565.077	0.04585009
565.28	0.04599341
565.482	0.04618929
565.684	0.04629594
565.887	0.04642388
566.089	0.04652773
566.291	0.04667754
566.494	0.04679817
566.696	0.04695898
566.898	0.04705496
567.1	0.04722851
567.303	0.04740822
567.505	0.04759148
567.707	0.04770224
567.909	0.04783143
568.111	0.04794719
568.314	0.04810009
568.516	0.04825761
568.718	0.04837708
568.92	0.04850216
569.122	0.04865615
569.324	0.04888064
569.526	0.04900296
569.728	0.04911987
569.93	0.04922746
570.132	0.04933758
570.334	0.0494771
570.536	0.04958467
570.738	0.04967149
570.94	0.04981202
571.142	0.04998306
571.344	0.05013199
571.546	0.05028442
571.748	0.05041131
571.95	0.05060335
572.152	0.05071613
572.354	0.05083878
572.555	0.05099265
572.757	0.05110081
572.959	0.05124559
573.161	0.05137211
573.363	0.05144618
573.564	0.05163083
573.766	0.05182406
573.968	0.05193269
574.17	0.05204012
574.371	0.0521626
574.573	0.05229565
574.775	0.05246928
574.976	0.05254702
575.178	0.05262707
575.38	0.05274123
575.581	0.05288646
575.783	0.05305039
575.985	0.05323975
576.186	0.05337933
576.388	0.05353649
576.589	0.05369828
576.791	0.0538478
576.992	0.05400063
577.194	0.05411934
577.395	0.05421784
577.597	0.05433971
577.798	0.05447491
578	0.05456785
578.201	0.05472205
578.402	0.05481677
578.604	0.05492645
578.805	0.05505688
579.007	0.05517798
579.208	0.05530282
579.409	0.05542922
579.611	0.05555306
579.812	0.05572505
580.013	0.05588065
580.215	0.05597157
580.416	0.05612119
580.617	0.05625388
580.818	0.05638809
581.019	0.05651183
581.221	0.05664806
581.422	0.05676815
581.623	0.05693077
581.824	0.05699771
582.025	0.05708101
582.226	0.05718649
582.428	0.05732204
582.629	0.05743373
582.83	0.05753662
583.031	0.05760785
583.232	0.05778341
583.433	0.05793634
583.634	0.05809398
583.835	0.0581681
584.036	0.05828182
584.237	0.05841644
584.438	0.05856147
584.639	0.05861947
584.84	0.05874107
585.041	0.05880998
585.242	0.05892028
585.442	0.05900742
585.643	0.05911034
585.844	0.05920555
586.045	0.05936346
586.246	0.05944448
586.447	0.05958768
586.647	0.05968816
586.848	0.05980725
587.049	0.05993772
587.25	0.06005687
587.45	0.060147
587.651	0.06027598
587.852	0.06036042
588.053	0.06049816
588.253	0.06058356
588.454	0.06068288
588.655	0.06076553
588.855	0.06084767
589.056	0.06091493
589.256	0.06101295
589.457	0.06108483
589.658	0.06120853
589.858	0.0612626
590.059	0.06139383
590.259	0.06152318
590.46	0.06166571
590.66	0.06179557
590.861	0.06190493
591.061	0.06200801
591.262	0.06213321
591.462	0.06224661
591.662	0.06230797
591.863	0.06238652
592.063	0.06248692
592.264	0.06255797
592.464	0.06264576
592.664	0.0627285
592.865	0.06286116
593.065	0.06298638
593.265	0.06305869
593.465	0.06308729
593.666	0.06320295
593.866	0.06329106
594.066	0.06343065
594.266	0.0634441
594.467	0.06349565
594.667	0.06360315
594.867	0.06374229
595.067	0.06382538
595.267	0.06389455
595.467	0.06392389
595.668	0.06399984
595.868	0.06410637
596.068	0.06417915
596.268	0.06421788
596.468	0.06430042
596.668	0.06437417
596.868	0.06448728
597.068	0.06454091
597.268	0.06465023
597.468	0.0647162
597.668	0.06479601
597.868	0.0648534
598.068	0.06497917
598.268	0.06501382
598.467	0.06515628
598.667	0.06517808
598.867	0.06524604
599.067	0.06533549
599.267	0.06542072
599.467	0.06545726
599.667	0.06547998
599.866	0.06550936
600.066	0.06561077
600.266	0.06567128
600.466	0.06572031
600.665	0.06576993
600.865	0.06584289
601.065	0.06594309
601.264	0.06597931
601.464	0.06597693
601.664	0.06604808
601.863	0.06610007
602.063	0.06619794
602.263	0.06619996
602.462	0.06626038
602.662	0.06631713
602.861	0.06642115
603.061	0.06643703
603.26	0.06649639
603.46	0.06648241
603.659	0.06659665
603.859	0.06662255
604.058	0.06669642
604.258	0.06673554
604.457	0.06681167
604.657	0.06683881
604.856	0.06688142
605.056	0.06687001
605.255	0.06690082
605.454	0.06692782
605.654	0.06693111
605.853	0.06697497
606.052	0.06701075
606.252	0.0670421
606.451	0.06709524
606.65	0.06712892
606.849	0.06714568
607.049	0.06719207
607.248	0.06724762
607.447	0.06729729
607.646	0.06738819
607.845	0.06742041
608.045	0.06745006
608.244	0.06752759
608.443	0.06757527
608.642	0.0676063
608.841	0.06765579
609.04	0.06764668
609.239	0.06771218
609.438	0.0677085
609.637	0.06773822
609.836	0.06776376
610.035	0.06777027
610.234	0.06782807
610.433	0.0678652
610.632	0.06786693
610.831	0.06798906
611.03	0.06800886
611.229	0.06808211
611.428	0.0680674
611.627	0.06806905
611.826	0.06811301
612.025	0.06818454
612.224	0.06815503
612.422	0.0681682
612.621	0.06816107
612.82	0.06821564
613.019	0.06821918
613.218	0.0682431
613.416	0.06821155
613.615	0.06827081
613.814	0.06832392
614.012	0.06832235
614.211	0.06833236
614.41	0.06837061
614.608	0.06835537
614.807	0.06834241
615.006	0.06835038
615.204	0.06832381
615.403	0.06838168
615.602	0.06846184
615.8	0.06852017
615.999	0.06850451
616.197	0.06853972
616.396	0.0686067
616.594	0.06865855
616.793	0.0686749
616.991	0.06859679
617.19	0.06850069
617.388	0.06858875
617.586	0.06857791
617.785	0.06851438
617.983	0.06847402
618.182	0.06846326
618.38	0.06850808
618.578	0.06855127
618.777	0.06855052
618.975	0.06860016
619.173	0.0686161
619.372	0.06862173
619.57	0.06859489
619.768	0.06858053
619.966	0.06859251
620.165	0.06854888
620.363	0.06852581
620.561	0.06846312
620.759	0.06847581
620.957	0.06846201
621.155	0.06849044
621.354	0.06844116
621.552	0.06847952
621.75	0.06845941
621.948	0.06850351
622.146	0.06852125
622.344	0.06854149
622.542	0.06850557
622.74	0.06850697
622.938	0.06841506
623.136	0.06846577
623.334	0.06847872
623.532	0.06839783
623.73	0.06837623
623.928	0.0683932
624.126	0.06840243
624.324	0.06846417
624.522	0.06837928
624.719	0.06835484
624.917	0.06837822
625.115	0.06836233
625.313	0.0683504
625.511	0.06833407
625.708	0.06822711
625.906	0.06822899
626.104	0.06819325
626.302	0.06822466
626.499	0.06821777
626.697	0.06815867
626.895	0.06806747
627.093	0.0680735
627.29	0.06812076
627.488	0.06812547
627.686	0.06807239
627.883	0.06800257
628.081	0.06797392
628.278	0.06808025
628.476	0.06805993
628.673	0.0679779
628.871	0.06793314
629.068	0.06789375
629.266	0.06790259
629.463	0.06784898
629.661	0.06776493
629.858	0.06772743
630.056	0.06768673
630.253	0.06763595
630.451	0.06761233
630.648	0.06754552
630.845	0.06752698
631.043	0.06746613
631.24	0.06747242
631.438	0.06746054
631.635	0.06743819
631.832	0.06735383
632.029	0.06733703
632.227	0.06731592
632.424	0.06730748
632.621	0.06727297
632.818	0.06721709
633.016	0.06717433
633.213	0.06713083
633.41	0.06709593
633.607	0.06704469
633.804	0.06701669
634.001	0.06691781
634.199	0.06691394
634.396	0.06688757
634.593	0.0668671
634.79	0.06684799
634.987	0.06687304
635.184	0.06678923
635.381	0.06682469
635.578	0.06677665
635.775	0.0667251
635.972	0.0666748
636.169	0.06658717
636.366	0.06648453
636.563	0.06646319
636.76	0.0663417
636.957	0.06625391
637.153	0.06618085
637.35	0.06617994
637.547	0.06613818
637.744	0.06610328
637.941	0.0660562
638.138	0.06604832
638.334	0.06600052
638.531	0.06597775
638.728	0.06589582
638.925	0.0659195
639.121	0.06584853
639.318	0.06582767
639.515	0.06575187
639.711	0.06575014
639.908	0.06567039
640.105	0.06562961
640.301	0.06555073
640.498	0.06550394
640.695	0.06544936
640.891	0.06540555
641.088	0.06531702
641.284	0.06525539
641.481	0.06517974
641.677	0.06507117
641.874	0.06500648
642.07	0.06495277
642.267	0.06489971
642.463	0.06483957
642.66	0.06487215
642.856	0.06482172
643.053	0.06475165
643.249	0.06473457
643.445	0.06468403
643.642	0.06462849
643.838	0.06460218
644.034	0.06449818
644.231	0.0644361
644.427	0.06438965
644.623	0.06429846
644.82	0.06423342
645.016	0.06420196
645.212	0.06409936
645.408	0.0640074
645.604	0.06397571
645.801	0.06391891
645.997	0.06386302
646.193	0.06374285
646.389	0.0636646
646.585	0.06360007
646.781	0.06359904
646.977	0.06353417
647.173	0.06345605
647.37	0.06335749
647.566	0.06334445
647.762	0.06322379
647.958	0.06318801
648.154	0.06307599
648.35	0.06301158
648.546	0.06297111
648.742	0.06298097
648.937	0.06285945
649.133	0.06283704
649.329	0.06276932
649.525	0.06274066
649.721	0.06264783
649.917	0.06260314
650.113	0.06249339
650.309	0.06246369
650.504	0.06236069
650.7	0.06224418
650.896	0.0621582
651.092	0.06207601
651.287	0.06196506
651.483	0.0619285
651.679	0.06183909
651.875	0.06185067
652.07	0.06183049
652.266	0.06172302
652.462	0.06166229
652.657	0.06160423
652.853	0.06149356
653.048	0.06142522
653.244	0.06126438
653.44	0.06116126
653.635	0.06107078
653.831	0.0610006
654.026	0.0609442
654.222	0.06088897
654.417	0.06084703
654.613	0.06082453
654.808	0.06074586
655.004	0.06071935
655.199	0.06064698
655.394	0.06059392
655.59	0.06055174
655.785	0.06044097
655.98	0.06035906
656.176	0.06029739
656.371	0.06024714
656.566	0.06019526
656.762	0.06007314
656.957	0.05998274
657.152	0.05994065
657.348	0.05985952
657.543	0.05975712
657.738	0.05967468
657.933	0.05955377
658.128	0.05949427
658.324	0.05939464
658.519	0.05926738
658.714	0.05920394
658.909	0.05915238
659.104	0.05908814
659.299	0.05905138
659.494	0.05896379
659.689	0.05888824
659.884	0.05885244
660.079	0.05876216
660.274	0.05871961
660.469	0.05861602
660.664	0.05855469
660.859	0.05845893
661.054	0.05839127
661.249	0.05833704
661.444	0.05826103
661.639	0.05811959
661.834	0.05803731
662.029	0.05794604
662.224	0.05789872
662.418	0.05777289
662.613	0.05764264
662.808	0.05755243
663.003	0.05752902
663.198	0.05741557
663.392	0.05731752
663.587	0.05730689
663.782	0.05728178
663.977	0.05722928
664.171	0.05713653
664.366	0.05707103
664.561	0.05702631
664.755	0.05700172
664.95	0.05688488
665.144	0.05680981
665.339	0.05676337
665.534	0.05677257
665.728	0.0566826
665.923	0.05664318
666.117	0.05654763
666.312	0.05641754
666.506	0.05637612
666.701	0.05621586
666.895	0.05611112
667.09	0.05601777
667.284	0.05593043
667.479	0.05582669
667.673	0.05575332
667.867	0.0556324
668.062	0.05561078
668.256	0.0555202
668.45	0.05545253
668.645	0.05534481
668.839	0.05530002
669.033	0.0552409
669.228	0.05513928
669.422	0.05510882
669.616	0.05500998
669.81	0.05490497
670.004	0.05482073
670.199	0.05472057
670.393	0.05466462
670.587	0.05461656
670.781	0.05445338
670.975	0.05438952
671.169	0.05435913
671.363	0.05429341
671.558	0.05420805
671.752	0.05415275
671.946	0.05408694
672.14	0.05402858
672.334	0.05393866
672.528	0.0538929
672.722	0.05381891
672.916	0.05380384
673.11	0.05370469
673.304	0.05367032
673.497	0.05363458
673.691	0.05359388
673.885	0.05347043
674.079	0.0534106
674.273	0.05327294
674.467	0.05321752
674.661	0.05308652
674.854	0.05302657
675.048	0.05293279
675.242	0.05285948
675.436	0.05276063
675.629	0.0527098
675.823	0.05260189
676.017	0.05254233
676.211	0.05244807
676.404	0.05240584
676.598	0.05231191
676.792	0.05226168
676.985	0.05218725
677.179	0.05209382
677.372	0.05200977
677.566	0.05191139
677.76	0.05183533
677.953	0.05179767
678.147	0.0517072
678.34	0.051644
678.534	0.05161904
678.727	0.05156753
678.921	0.05153081
679.114	0.05146538
679.307	0.05139574
679.501	0.05137431
679.694	0.05131122
679.888	0.05122647
680.081	0.05119102
680.274	0.05110221
680.468	0.05096384
680.661	0.05086063
680.854	0.05079209
681.048	0.05073585
681.241	0.05067414
681.434	0.05058122
681.627	0.05051734
681.821	0.05052915
682.014	0.05053954
682.207	0.05048022
682.4	0.0503956
682.593	0.05032416
682.786	0.05022752
682.98	0.05016143
683.173	0.05009104
683.366	0.04999949
683.559	0.04990355
683.752	0.049836
683.945	0.04978333
684.138	0.04974585
684.331	0.04968502
684.524	0.04966004
684.717	0.04959406
684.91	0.04956007
685.103	0.04949118
685.296	0.04943985
685.489	0.04939356
685.682	0.04933914
685.874	0.04924158
686.067	0.04916514
686.26	0.04909803
686.453	0.04907629
686.646	0.04899163
686.839	0.04893499
687.031	0.04889279
687.224	0.04875551
687.417	0.04872261
687.61	0.04859618
687.802	0.04850259
687.995	0.04847399
688.188	0.04840733
688.38	0.04829134
688.573	0.0482505
688.766	0.04816448
688.958	0.04815019
689.151	0.04810208
689.343	0.04804178
689.536	0.04800925
689.729	0.04800325
689.921	0.0480028
690.114	0.04791535
690.306	0.04783311
690.499	0.04780506
690.691	0.04774213
690.884	0.04761782
691.076	0.04756847
691.268	0.04751818
691.461	0.04743363
691.653	0.04740036
691.846	0.0473008
692.038	0.04722631
692.23	0.04713618
692.423	0.04706993
692.615	0.04700176
692.807	0.04701548
692.999	0.04698106
693.192	0.04689904
693.384	0.04685818
693.576	0.04681407
693.768	0.04674451
693.961	0.04667968
694.153	0.04663165
694.345	0.04655253
694.537	0.04655189
694.729	0.04649438
694.921	0.04644401
695.113	0.04638639
695.305	0.04632795
695.498	0.04624262
695.69	0.04618249
695.882	0.04608762
696.074	0.04603793
696.266	0.04605548
696.458	0.04599357
696.65	0.04597492
696.842	0.04591652
697.033	0.04590092
697.225	0.04586394
697.417	0.04583079
697.609	0.04579627
697.801	0.04576273
697.993	0.04569491
698.185	0.04566244
698.376	0.0455484
698.568	0.04549785
698.76	0.04542976
698.952	0.04534797
699.144	0.04528611
699.335	0.04521382
699.527	0.04517192
699.719	0.04517012
699.91	0.04515017
700.102	0.04511457
700.294	0.04506342
700.485	0.04503753
700.677	0.04499886
700.869	0.04498223
701.06	0.04495748
701.252	0.04490804
701.443	0.04485255
701.635	0.04477778
701.826	0.04471454
702.018	0.04466355
702.209	0.04458972
702.401	0.04451078
702.592	0.04447545
702.784	0.04442039
702.975	0.04440454
703.166	0.04438654
703.358	0.04434464
703.549	0.04432396
703.741	0.04431768
703.932	0.04423878
704.123	0.04423093
704.315	0.04421273
704.506	0.04416629
704.697	0.04417384
704.888	0.04415515
705.08	0.04408629
705.271	0.04409225
705.462	0.04403172
705.653	0.04395881
705.844	0.04393332
706.035	0.0439061
706.227	0.04382684
706.418	0.04379216
706.609	0.04371946
706.8	0.04369189
706.991	0.04367158
707.182	0.04364576
707.373	0.04352911
707.564	0.04347805
707.755	0.04345547
707.946	0.04341976
708.137	0.04336579
708.328	0.04331536
708.519	0.04326086
708.71	0.04327648
708.901	0.04324942
709.092	0.04323352
709.283	0.04320209
709.473	0.043212
709.664	0.04321572
709.855	0.04322258
710.046	0.04319094
710.237	0.0431583
710.427	0.04309891
710.618	0.0430684
710.809	0.04298653
711	0.04289981
711.19	0.04281179
711.381	0.042772
711.572	0.04278361
711.762	0.04275664
711.953	0.04269759
712.144	0.04267272
712.334	0.04265727
712.525	0.0426284
712.715	0.04257527
712.906	0.04246529
713.097	0.04241934
713.287	0.04243008
713.478	0.04240366
713.668	0.04239058
713.859	0.0424108
714.049	0.04241708
714.239	0.04247474
714.43	0.0424432
714.62	0.04242138
714.811	0.04240158
715.001	0.04238805
715.191	0.04233966
715.382	0.04228367
715.572	0.04220776
715.762	0.04219234
715.953	0.04215846
716.143	0.0421404
716.333	0.0421027
716.523	0.04205624
716.714	0.04208189
716.904	0.04207724
717.094	0.04209496
717.284	0.04206122
717.474	0.04198981
717.664	0.04198876
717.855	0.04197779
718.045	0.04194268
718.235	0.04192315
718.425	0.04187518
718.615	0.04188792
718.805	0.04191868
718.995	0.04195114
719.185	0.04194071
719.375	0.04193403
719.565	0.04188646
719.755	0.04185522
719.945	0.04184174
720.135	0.04183273
720.325	0.04174867
720.515	0.04175832
720.704	0.04169155
720.894	0.04171361
721.084	0.04172044
721.274	0.04170596
721.464	0.04168288
721.654	0.04162797
721.843	0.04159831
722.033	0.04157368
722.223	0.04155719
722.413	0.04156067
722.602	0.04155842
722.792	0.041543
722.982	0.04156822
723.171	0.04154258
723.361	0.04154408
723.55	0.04156597
723.74	0.04151978
723.93	0.04145842
724.119	0.04146973
724.309	0.041456
724.498	0.04145036
724.688	0.04148043
724.877	0.04140201
725.067	0.04140283
725.256	0.04132467
725.446	0.04133409
725.635	0.04132223
725.825	0.04130122
726.014	0.04127712
726.203	0.04123969
726.393	0.04122086
726.582	0.04126435
726.771	0.04122896
726.961	0.04122627
727.15	0.04123149
727.339	0.04115043
727.529	0.04117538
727.718	0.04113447
727.907	0.04113507
728.096	0.04109995
728.286	0.04107517
728.475	0.04103226
728.664	0.04104247
728.853	0.04099857
729.042	0.0409837
729.231	0.04096654
729.42	0.04088959
729.609	0.04085047
729.799	0.04078031
729.988	0.04077351
730.177	0.04075276
730.366	0.04077575
730.555	0.04073657
730.744	0.04073039
730.933	0.04067603
731.122	0.04069796
731.31	0.04067591
731.499	0.04064653
731.688	0.04057132
731.877	0.04055601
732.066	0.04057735
732.255	0.04056385
732.444	0.04051641
732.632	0.04048315
732.821	0.04050496
733.01	0.04050346
733.199	0.04042246
733.388	0.04036807
733.576	0.04037403
733.765	0.04034681
733.954	0.04035693
734.142	0.0403102
734.331	0.04028831
734.52	0.04032816
734.708	0.04030028
734.897	0.04029979
735.086	0.0402864
735.274	0.04021866
735.463	0.04020889
735.651	0.0402125
735.84	0.04020421
736.028	0.04016987
736.217	0.04012909
736.405	0.0401361
736.594	0.04017175
736.782	0.04010131
736.971	0.04004369
737.159	0.03999316
737.347	0.03999406
737.536	0.04002091
737.724	0.040026
737.912	0.04000343
738.101	0.04004202
738.289	0.04002257
738.477	0.04001311
738.666	0.03997815
738.854	0.03988216
739.042	0.03982653
739.23	0.03976317
739.418	0.03974989
739.607	0.03978994
739.795	0.03982599
739.983	0.03985719
740.171	0.03986981
740.359	0.03985448
740.547	0.03988522
740.735	0.03984561
740.923	0.039776
741.112	0.03972186
741.3	0.03969108
741.488	0.03964554
741.676	0.03970639
741.864	0.03972219
742.052	0.03977508
742.239	0.03973541
742.427	0.03967896
742.615	0.03966339
742.803	0.03968614
742.991	0.03957032
743.179	0.03949078
743.367	0.03944336
743.555	0.03948824
743.742	0.03956304
743.93	0.03955686
744.118	0.03956526
744.306	0.03956487
744.494	0.03955585
744.681	0.03950949
744.869	0.03946352
745.057	0.03939963
745.244	0.03942478
745.432	0.03936456
745.62	0.03942137
745.807	0.03944984
745.995	0.0394172
746.182	0.03939856
746.37	0.03943342
746.558	0.03938588
746.745	0.03944417
746.933	0.03940103
747.12	0.03938064
747.308	0.03940246
747.495	0.03944947
747.683	0.03938441
747.87	0.03936976
748.057	0.03929781
748.245	0.03922563
748.432	0.03918225
748.62	0.03915079
748.807	0.03910356
748.994	0.0390842
749.182	0.03909195
749.369	0.03911274
749.556	0.03921243
749.743	0.03924463
749.931	0.03922563
750.118	0.03922016
750.305	0.03922203
750.492	0.03917068
750.68	0.03913997
750.867	0.03906958
751.054	0.0389934
751.241	0.03896836
751.428	0.03893964
751.615	0.03894434
751.802	0.03895115
751.989	0.03896141
752.176	0.03893908
752.363	0.03898339
752.55	0.03896934
752.737	0.0389453
752.924	0.03893719
753.111	0.03891486
753.298	0.03885543
753.485	0.03888242
753.672	0.03881525
753.859	0.03883744
754.046	0.03883463
754.233	0.03878671
754.42	0.03878264
754.606	0.03876555
754.793	0.03869082
754.98	0.03865622
755.167	0.03864171
755.353	0.03868352
755.54	0.03867689
755.727	0.03866214
755.914	0.03865584
756.1	0.03867043
756.287	0.03871479
756.474	0.03870127
756.66	0.03861307
756.847	0.03859526
757.033	0.03853592
757.22	0.03853907
757.407	0.03853665
757.593	0.03852862
757.78	0.03853812
757.966	0.03856375
758.153	0.03854305
758.339	0.03859241
758.526	0.0385878
758.712	0.0385087
758.898	0.03845562
759.085	0.03842219
759.271	0.03838084
759.458	0.03835681
759.644	0.03830351
759.83	0.03829111
760.017	0.0383443
760.203	0.0383547
760.389	0.03833942
760.576	0.0383215
760.762	0.03827456
760.948	0.0382695
761.134	0.03822516
761.32	0.03816383
761.507	0.03811388
761.693	0.03808001
761.879	0.03809363
762.065	0.03812712
762.251	0.03810938
762.437	0.03809002
762.623	0.03805909
762.809	0.03802963
762.995	0.03803392
763.181	0.03800205
763.367	0.03800169
763.553	0.03800122
763.739	0.03800208
763.925	0.03799147
764.111	0.03803072
764.297	0.03799252
764.483	0.03794141
764.669	0.03788616
764.855	0.03786429
765.041	0.03782693
765.227	0.03787166
765.412	0.03781965
765.598	0.03782946
765.784	0.03791765
765.97	0.03795112
766.156	0.03792337
766.341	0.03795292
766.527	0.03788219
766.713	0.03786353
766.898	0.03783862
767.084	0.03772446
767.27	0.03768356
767.455	0.0376286
767.641	0.03753947
767.827	0.03757593
768.012	0.03762444
768.198	0.03760096
768.383	0.03759085
768.569	0.03752892
768.754	0.03754279
768.94	0.03755063
769.125	0.03745249
769.311	0.03736338
769.496	0.03729248
769.682	0.03729619
769.867	0.03726374
770.052	0.03725763
770.238	0.03728931
770.423	0.03728284
770.608	0.03724644
770.794	0.03724714
770.979	0.03716607
771.164	0.03715678
771.35	0.03709344
771.535	0.03703958
771.72	0.03704745
771.905	0.03704382
772.09	0.03709609
772.276	0.03710464
772.461	0.03710678
772.646	0.03710319
772.831	0.03707391
773.016	0.03698539
773.201	0.03694627
773.386	0.03683327
773.571	0.03681831
773.756	0.03676676
773.941	0.03672712
774.126	0.03672093
774.311	0.03673859
774.496	0.03674134
774.681	0.03672102
774.866	0.03665796
775.051	0.03666532
775.236	0.03669625
775.421	0.03659041
775.606	0.03656259
775.791	0.03648614
775.976	0.0364945
776.16	0.03643566
776.345	0.03638916
776.53	0.03633071
776.715	0.03634108
776.899	0.03629695
777.084	0.03627184
777.269	0.03620003
777.454	0.03617478
777.638	0.03611732
777.823	0.03604193
778.008	0.03603709
778.192	0.03602477
778.377	0.03600748
778.561	0.0360353
778.746	0.03607485
778.931	0.03607427
779.115	0.03608416
779.3	0.03605834
779.484	0.03597911
779.669	0.03597892
779.853	0.03593256
780.037	0.03589305
780.222	0.03587382
780.406	0.03582331
780.591	0.03578352
780.775	0.03581625
780.959	0.03580437
781.144	0.03583979
781.328	0.03584198
781.512	0.03581155
781.697	0.03578337
781.881	0.03575707
782.065	0.03578874
782.249	0.03569825
782.434	0.035622
782.618	0.03557647
782.802	0.03557523
782.986	0.03560006
783.17	0.03552727
783.354	0.03542512
783.539	0.03545467
783.723	0.03534834
783.907	0.03534262
784.091	0.03527782
784.275	0.03516032
784.459	0.03517252
784.643	0.03518856
784.827	0.0351341
785.011	0.03519141
785.195	0.03518652
785.379	0.03518919
785.563	0.03520572
785.747	0.03515002
785.93	0.03504494
786.114	0.03496654
786.298	0.03487021
786.482	0.03474716
786.666	0.03470339
786.85	0.03467806
787.033	0.03465628
787.217	0.03468059
787.401	0.03470594
787.585	0.03474153
787.768	0.03473395
787.952	0.03465846
788.136	0.03458426
788.319	0.03453488
788.503	0.03443521
788.687	0.03438759
788.87	0.03433942
789.054	0.03436494
789.237	0.0343946
789.421	0.03437369
789.605	0.03437402
789.788	0.03437278
789.972	0.03435558
790.155	0.03432488
790.338	0.03422772
790.522	0.03413258
790.705	0.03412078
790.889	0.03405927
791.072	0.03408317
791.256	0.0340198
791.439	0.03395406
791.622	0.03392176
791.806	0.03388887
791.989	0.0338394
792.172	0.03376901
792.355	0.03365619
792.539	0.03366946
792.722	0.03362039
792.905	0.03355152
793.088	0.03352486
793.271	0.03351227
793.455	0.0335214
793.638	0.03351092
793.821	0.03346695
794.004	0.03346739
794.187	0.03352613
794.37	0.03350978
794.553	0.03349913
794.736	0.03350766
794.919	0.03350577
795.102	0.03344155
795.285	0.03337921
795.468	0.03331186
795.651	0.03326576
795.834	0.0332302
796.017	0.03317815
796.2	0.03310082
796.383	0.03307605
796.566	0.03305753
796.749	0.03301237
796.931	0.03297187
797.114	0.03290238
797.297	0.03284442
797.48	0.03281851
797.663	0.03283108
797.845	0.03278885
798.028	0.03274348
798.211	0.03275178
798.393	0.03278248
798.576	0.032746
798.759	0.03268809
798.941	0.03263784
799.124	0.03260148
799.307	0.03256677
799.489	0.03247448
799.672	0.03236835
799.854	0.03237117
800.037	0.03233546
800.219	0.03228064
800.402	0.03225435
800.584	0.0321902
800.767	0.03217995
800.949	0.0321246
801.132	0.03202557
801.314	0.03200702
801.496	0.03188957
801.679	0.03180609
801.861	0.03173112
802.043	0.03171441
802.226	0.03172995
802.408	0.03170982
802.59	0.03167509
802.772	0.0316831
802.955	0.03169249
803.137	0.03174714
803.319	0.03165814
803.501	0.03154941
803.684	0.03143659
803.866	0.03137841
804.048	0.03133668
804.23	0.03127685
804.412	0.03118251
804.594	0.03114493
804.776	0.03115673
804.958	0.03118798
805.14	0.03117687
805.322	0.03113311
805.504	0.03111614
805.686	0.03110017
805.868	0.03102066
806.05	0.03096772
806.232	0.03090739
806.414	0.03086038
806.596	0.03072528
806.778	0.03059997
806.96	0.03059825
807.141	0.03056443
807.323	0.03054507
807.505	0.03049514
807.687	0.03041464
807.869	0.03051122
808.05	0.03055152
808.232	0.03043986
808.414	0.03044297
808.595	0.03033584
808.777	0.03028706
808.959	0.03026607
809.14	0.03013719
809.322	0.03004004
809.504	0.03001594
809.685	0.02997871
809.867	0.02998695
810.048	0.02995474
810.23	0.02988336
810.411	0.02987284
810.593	0.02982536
810.774	0.02975144
810.956	0.02968758
811.137	0.02964943
811.319	0.02961605
811.5	0.02959571
811.681	0.02951829
811.863	0.02946873
812.044	0.02952276
812.225	0.02949064
812.407	0.02942414
812.588	0.02938161
812.769	0.02934989
812.951	0.02933697
813.132	0.02931323
813.313	0.02917806
813.494	0.02901988
813.675	0.02895947
813.857	0.02891969
814.038	0.02885259
814.219	0.02883414
814.4	0.0287787
814.581	0.02877876
814.762	0.02886146
814.943	0.02878779
815.124	0.02875859
815.305	0.02871111
815.486	0.02861691
815.667	0.02861571
815.848	0.02856791
816.029	0.02852686
816.21	0.02849336
816.391	0.02848209
816.572	0.02850014
816.753	0.02856593
816.934	0.02850079
817.115	0.0284336
817.295	0.02841245
817.476	0.02837702
817.657	0.02828045
817.838	0.0282064
818.019	0.02802417
818.199	0.02794613
818.38	0.02780463
818.561	0.02769066
818.741	0.02761935
818.922	0.02759262
819.103	0.02749149
819.283	0.02747665
819.464	0.02744127
819.645	0.02747334
819.825	0.02744772
820.006	0.02740935
820.186	0.02733629
820.367	0.02728689
820.547	0.02721269
820.728	0.02715704
820.908	0.02709617
821.089	0.0270668
821.269	0.0270486
821.45	0.02708288
821.63	0.0270805
821.81	0.02710353
821.991	0.02713518
822.171	0.02710134
822.351	0.02699949
822.532	0.0268571
822.712	0.02672273
822.892	0.02666452
823.072	0.02660651
823.253	0.0264829
823.433	0.02646125
823.613	0.02647631
823.793	0.02651554
823.973	0.02645654
824.154	0.02638442
824.334	0.02627695
824.514	0.0262004
824.694	0.0260831
824.874	0.02597614
825.054	0.02584771
825.234	0.02582617
825.414	0.02574163
825.594	0.02569574
825.774	0.02567192
825.954	0.02568168
826.134	0.02569301
826.314	0.02580851
826.494	0.02576037
826.674	0.02580117
826.854	0.02577753
827.033	0.02572735
827.213	0.02557798
827.393	0.02551158
827.573	0.02534603
827.753	0.02529366
827.932	0.02521685
828.112	0.02521092
828.292	0.02516911
828.472	0.02518641
828.651	0.02513476
828.831	0.02513417
829.011	0.0250296
829.19	0.02499681
829.37	0.02489532
829.549	0.02484144
829.729	0.02479048
829.909	0.02466076
830.088	0.02455291
830.268	0.02456803
830.447	0.02451297
830.627	0.02455301
830.806	0.0245123
830.986	0.02449664
831.165	0.02449374
831.344	0.02446784
831.524	0.02443772
831.703	0.02435872
831.883	0.02420518
832.062	0.02410825
832.241	0.02404788
832.421	0.02398034
832.6	0.02390431
832.779	0.02374211
832.958	0.02366975
833.138	0.02362633
833.317	0.02363006
833.496	0.02354664
833.675	0.02349757
833.854	0.02347626
834.034	0.02353852
834.213	0.02350516
834.392	0.02345532
834.571	0.02337939
834.75	0.02330078
834.929	0.02321678
835.108	0.02314312
835.287	0.0230706
835.466	0.02298773
835.645	0.02295984
835.824	0.02287933
836.003	0.02287478
836.182	0.02290834
836.361	0.02282274
836.54	0.02270383
836.719	0.02267045
836.897	0.02255215
837.076	0.02251125
837.255	0.02240608
837.434	0.02233159
837.613	0.02234967
837.791	0.02224786
837.97	0.02220364
838.149	0.02220587
838.328	0.0222132
838.506	0.02222551
838.685	0.02219381
838.864	0.02214578
839.042	0.02215774
839.221	0.02213672
839.4	0.02202386
839.578	0.0219151
839.757	0.02182418
839.935	0.02165492
840.114	0.02154982
840.292	0.02150544
840.471	0.02146143
840.649	0.02152037
840.828	0.02143456
841.006	0.02140312
841.185	0.02146775
841.363	0.02146208
841.541	0.02141863
841.72	0.02137051
841.898	0.02125975
842.076	0.02120599
842.255	0.021151
842.433	0.02105106
842.611	0.02100886
842.789	0.0209194
842.968	0.02077464
843.146	0.0207341
843.324	0.0207277
843.502	0.02067984
843.68	0.02065246
843.859	0.02064161
844.037	0.02057635
844.215	0.02055632
844.393	0.02046348
844.571	0.02039709
844.749	0.02032478
844.927	0.02021862
845.105	0.02013014
845.283	0.02015964
845.461	0.02014917
845.639	0.02011828
845.817	0.02014372
845.995	0.02012031
846.173	0.02010572
846.351	0.02001842
846.529	0.0199787
846.706	0.01992772
846.884	0.01983549
847.062	0.01971078
847.24	0.01963589
847.418	0.01957366
847.595	0.0194936
847.773	0.01943612
847.951	0.0193647
848.129	0.01942997
848.306	0.01941288
848.484	0.01944818
848.662	0.01941933
848.839	0.01948397
849.017	0.01936438
849.194	0.01936746
849.372	0.01926457
849.549	0.01924806
849.727	0.01908573
849.905	0.01898515
850.082	0.01886491
850.26	0.01886326
850.437	0.01880686
850.614	0.01878144
850.792	0.01872601
850.969	0.01875922
851.147	0.01878815
851.324	0.01873348
851.501	0.01867287
851.679	0.01856422
851.856	0.01845059
852.033	0.01837492
852.211	0.01821011
852.388	0.01813825
852.565	0.01810497
852.742	0.01807372
852.92	0.01802531
853.097	0.01805236
853.274	0.01799057
853.451	0.01803605
853.628	0.01792351
853.805	0.01785776
853.982	0.01779964
854.159	0.01779096
854.336	0.0177289
854.514	0.01763716
854.691	0.01759998
854.868	0.01766742
855.045	0.01757268
855.221	0.01746924
855.398	0.01738531
855.575	0.01730457
855.752	0.01731262
855.929	0.01720268
856.106	0.01709853
856.283	0.0170954
856.46	0.01708491
856.637	0.0170392
856.813	0.01702613
856.99	0.01694714
857.167	0.01690042
857.344	0.01683349
857.52	0.01677324
857.697	0.0167284
857.874	0.01667122
858.05	0.01666612
858.227	0.01662696
858.404	0.01663886
858.58	0.01659543
858.757	0.01660827
858.933	0.01658103
859.11	0.01653267
859.287	0.01640686
859.463	0.01639234
859.64	0.01630893
859.816	0.01625805
859.993	0.01617516
860.169	0.01605099
860.345	0.0160084
860.522	0.0159329
860.698	0.01578405
860.875	0.01569772
861.051	0.01561476
861.227	0.01550432
861.404	0.01553696
861.58	0.01546738
861.756	0.01547625
861.932	0.0153989
862.109	0.01536131
862.285	0.01534486
862.461	0.01533113
862.637	0.01523692
862.813	0.01518443
862.99	0.01514916
863.166	0.0151937
863.342	0.0151025
863.518	0.01509049
863.694	0.01507109
863.87	0.01506245
864.046	0.01507336
864.222	0.01508292
864.398	0.01515013
864.574	0.01521522
864.75	0.01516065
864.926	0.0151229
865.102	0.01508774
865.278	0.01499305
865.454	0.01487395
865.63	0.01467278
865.805	0.01454897
865.981	0.01459738
866.157	0.01457917
866.333	0.01453291
866.509	0.01461096
866.684	0.01461766
866.86	0.01466784
867.036	0.01462233
867.212	0.01445569
867.387	0.01431871
867.563	0.01418664
867.739	0.01397132
867.914	0.01381227
868.09	0.01371471
868.265	0.01368022
868.441	0.01355803
868.617	0.01356108
868.792	0.01360069
868.968	0.01365175
869.143	0.01363037
869.319	0.01357015
869.494	0.01367628
869.67	0.01379159
869.845	0.01378473
870.02	0.01367635
870.196	0.01364699
870.371	0.01358792
870.546	0.01356541
870.722	0.01343293
870.897	0.01329889
871.072	0.01316996
871.248	0.01313504
871.423	0.01306638
871.598	0.01307862
871.773	0.01307997
871.949	0.01303371
872.124	0.01317035
872.299	0.0132227
872.474	0.01327823
872.649	0.01323893
872.824	0.01318925
872.999	0.0131627
873.174	0.01310275
873.349	0.01285547
873.524	0.01272804
873.699	0.01268694
873.874	0.01258571
874.049	0.01254275
874.224	0.01248063
874.399	0.01248912
874.574	0.01253846
874.749	0.01254304
874.924	0.01251874
875.099	0.01252165
875.274	0.01246809
875.449	0.01240996
875.623	0.01229218
875.798	0.01214795
875.973	0.01202383
876.148	0.0118864
876.322	0.01176843
876.497	0.01182503
876.672	0.01178506
876.846	0.01173451
877.021	0.01176698
877.196	0.01191538
877.37	0.01203084
877.545	0.01208842
877.72	0.01207601
877.894	0.01205461
878.069	0.01210346
878.243	0.01211003
878.418	0.01186585
878.592	0.01169863
878.767	0.01163659
878.941	0.01144245
879.116	0.01134574
879.29	0.01119914
879.464	0.01107942
879.639	0.01111433
879.813	0.01108664
879.987	0.01111546
880.162	0.01113005
880.336	0.01121231
880.51	0.01128023
880.685	0.01126656
880.859	0.01113334
881.033	0.01102652
881.207	0.01088497
881.381	0.01085755
881.556	0.01060339
881.73	0.0104276
881.904	0.01030677
882.078	0.01039703
882.252	0.01042204
882.426	0.01047998
882.6	0.01051968
882.774	0.01067617
882.948	0.01067495
883.122	0.01078323
883.296	0.01075491
883.47	0.01077462
883.644	0.01073097
883.818	0.01063397
883.992	0.01060118
884.166	0.01062005
884.34	0.01055975
884.514	0.01048775
884.687	0.01041752
884.861	0.0104684
885.035	0.01046288
885.209	0.01041394
885.382	0.01046775
885.556	0.01044868
885.73	0.01047599
885.904	0.0104228
886.077	0.01024366
886.251	0.010164
886.425	0.00993017
886.598	0.00974831
886.772	0.00965415
886.945	0.00964454
887.119	0.00948068
887.292	0.00942748
887.466	0.00933726
887.64	0.00935068
887.813	0.00935015
887.986	0.00940672
888.16	0.00945912
888.333	0.00953436
888.507	0.00964402
888.68	0.00971747
888.854	0.00985099
889.027	0.00976826
889.2	0.00964162
889.374	0.00942858
889.547	0.00931721
889.72	0.00923955
889.893	0.00903342
890.067	0.00891245
890.24	0.00896255
890.413	0.00897892
890.586	0.00898817
890.759	0.00901002
890.933	0.00893305
891.106	0.00903266
891.279	0.00897423
891.452	0.00891341
891.625	0.00884337
891.798	0.0088432
891.971	0.00874776
892.144	0.00868751
892.317	0.00859294
892.49	0.0085412
892.663	0.00846393
892.836	0.00844268
893.009	0.00835727
893.182	0.00841164
893.355	0.0083993
893.527	0.00840231
893.7	0.00850456
893.873	0.00857863
894.046	0.0085966
894.219	0.00859663
894.391	0.00853808
894.564	0.00845424
894.737	0.00830222
894.91	0.00810021
895.082	0.00799831
895.255	0.00782419
895.428	0.00769896
895.6	0.00765052
895.773	0.00766172
895.945	0.0076964
896.118	0.00779073
896.291	0.00780488
896.463	0.00789366
896.636	0.00790575
896.808	0.00800475
896.981	0.00809412
897.153	0.00818143
897.326	0.00802075
897.498	0.00795643
897.67	0.00778261
897.843	0.00773695
898.015	0.00756718
898.187	0.00738546
898.36	0.00724943
898.532	0.00733126
898.704	0.00729914
898.877	0.00738374
899.049	0.00735221
899.221	0.00749237
899.393	0.00750599
899.566	0.0075402
899.738	0.00750767
899.91	0.0074341
900.082	0.00738184
900.254	0.0073283
900.426	0.00713538
900.598	0.00706796
900.77	0.00690289
900.942	0.00678592
901.114	0.00675788
901.286	0.00670667
901.458	0.00671816
901.63	0.00675111
901.802	0.0067229
901.974	0.00683835
902.146	0.00694403
902.318	0.00706763
902.49	0.00718803
902.662	0.0072081
902.834	0.0070801
903.005	0.00712665
903.177	0.00702024
903.349	0.00687543
903.521	0.00663528
903.693	0.00648558
903.864	0.00636015
904.036	0.00637587
904.208	0.00621026
904.379	0.00627851
904.551	0.00633904
904.723	0.00649116
904.894	0.00658122
905.066	0.00665506
905.237	0.00674655
905.409	0.00689761
905.58	0.00695284
905.752	0.00691688
905.923	0.00690158
906.095	0.00678255
906.266	0.00670233
906.438	0.00666067
906.609	0.00651408
906.78	0.00629791
906.952	0.00624788
907.123	0.00618495
907.295	0.0061631
907.466	0.00619218
907.637	0.00609767
907.808	0.00614079
907.98	0.00621862
908.151	0.00623872
908.322	0.0062521
908.493	0.00620009
908.665	0.00623086
908.836	0.00629472
909.007	0.00631569
909.178	0.00632619
909.349	0.00630847
909.52	0.00605982
909.691	0.00593141
909.862	0.005767
910.033	0.00572843
910.204	0.00564253
910.375	0.00563174
910.546	0.00562013
910.717	0.00573456
910.888	0.00578695
911.059	0.00584287
911.23	0.00579886
911.401	0.00581885
911.572	0.00572167
911.742	0.0056169
911.913	0.0056378
912.084	0.00566939
912.255	0.00563401
912.426	0.0054472
912.596	0.00530247
912.767	0.00518936
912.938	0.0051018
913.108	0.00500056
913.279	0.00491641
913.45	0.0048739
913.62	0.00495169
913.791	0.00502087
913.962	0.00510151
914.132	0.0052396
914.303	0.00526912
914.473	0.00536352
914.644	0.00530273
914.814	0.00534001
914.985	0.00531355
915.155	0.00529281
915.326	0.0051313
915.496	0.00502603
915.666	0.00485155
915.837	0.00483718
916.007	0.00472772
916.177	0.00463391
916.348	0.00452496
916.518	0.00452562
916.688	0.00449232
916.858	0.00450738
917.029	0.00459338
917.199	0.00474086
917.369	0.00477127
917.539	0.0049098
917.709	0.00494087
917.88	0.00498155
918.05	0.00499833
918.22	0.00479302
918.39	0.00463489
918.56	0.00463341
918.73	0.00447011
918.9	0.00428809
919.07	0.0042957
919.24	0.00433763
919.41	0.00446595
919.58	0.00454882
919.75	0.00446076
919.92	0.00443279
920.09	0.00458641
920.26	0.00458473
920.429	0.00451985
920.599	0.0045011
920.769	0.00435652
920.939	0.00435008
921.109	0.00436038
921.278	0.00423377
921.448	0.00421901
921.618	0.00410373
921.787	0.00406842
921.957	0.00405644
922.127	0.00405762
922.296	0.00412349
922.466	0.00413541
922.636	0.0040929
922.805	0.00416006
922.975	0.00409156
923.144	0.00418736
923.314	0.004204
923.483	0.00408703
923.653	0.00411169
923.822	0.00412262
923.992	0.00409867
924.161	0.00404872
924.331	0.00385465
924.5	0.00378263
924.669	0.00366203
924.839	0.003631
925.008	0.00362334
925.177	0.00367772
925.347	0.00378957
925.516	0.00378996
925.685	0.00382596
925.854	0.0040368
926.023	0.00411469
926.193	0.00404689
926.362	0.00402802
926.531	0.00387894
926.7	0.00401242
926.869	0.00396928
927.038	0.00383494
927.207	0.00371413
927.376	0.00379729
927.545	0.00362949
927.715	0.00374411
927.884	0.00364698
928.052	0.00366045
928.221	0.00365046
928.39	0.00360168
928.559	0.00360267
928.728	0.00371118
928.897	0.003578
929.066	0.00363411
929.235	0.0035954
929.404	0.00360933
929.572	0.0036759
929.741	0.00357671
929.91	0.00330523
930.079	0.00340448
930.247	0.0034177
930.416	0.00339292
930.585	0.00328851
930.753	0.00329407
930.922	0.00339296
931.091	0.00361377
931.259	0.00363315
931.428	0.00351466
931.596	0.00354506
931.765	0.00377001
931.934	0.00368872
932.102	0.00363688
932.27	0.00346648
932.439	0.00343042
932.607	0.00348456
932.776	0.00336179
932.944	0.00302875
933.113	0.00319761
933.281	0.00302789
933.449	0.00311719
933.618	0.00293811
933.786	0.00274788
933.954	0.00262587
934.123	0.00267217
934.291	0.00247835
934.459	0.00252887
934.627	0.00263599
934.795	0.00278452
934.964	0.00286903
935.132	0.00309067
935.3	0.00331848
935.468	0.0034024
935.636	0.00349295
935.804	0.00352994
935.972	0.00336995
936.14	0.0033823
936.308	0.00354564
936.476	0.00360045
936.644	0.00360741
936.812	0.00358221
936.98	0.00357708
937.148	0.00368966
937.316	0.00392244
937.484	0.0035204
937.652	0.00347609
937.82	0.00339553
937.987	0.00366923
938.155	0.00371423
938.323	0.0042104
938.491	0.00406803
938.658	0.00449983
938.826	0.00442868
938.994	0.00470076
939.162	0.00454084
939.329	0.00448326
939.497	0.00404094
939.665	0.0041217
939.832	0.00404639
940	0.00383727
940.167	0.00377126
940.335	0.00390143
940.502	0.00400102
940.67	0.0035997
940.837	0.0033495
941.005	0.00370081
941.172	0.00391217
941.34	0.0041194
941.507	0.00408851
941.674	0.00437116
941.842	0.00446073
942.009	0.0051784
942.177	0.00519691
942.344	0.00566323
942.511	0.00610821
942.678	0.0057958
942.846	0.00622762
943.013	0.00707127
943.18	0.00760697
943.347	0.00744195
943.514	0.00752234
943.682	0.00685865
943.849	0.00718164
944.016	0.00637347
944.183	0.00640878
944.35	0.00555322
944.517	0.00539203
944.684	0.00476696
944.851	0.00484222
945.018	0.00459743
945.185	0.00533381
945.352	0.00593755
945.519	0.00635558
945.686	0.00631657
945.853	0.00642699
946.02	0.00709894
946.187	0.00611653
946.353	0.00499223
946.52	0.00400194
946.687	0.00327936
946.854	0.00309148
947.021	0.00386506
947.187	0.00312943
947.354	0.00406559
947.521	0.00412206
947.687	0.00443717
947.854	0.00404412
948.021	0.00457371
948.187	0.00383128
948.354	0.00415572
948.52	0.00418025
948.687	0.0048302
948.854	0.00511595
949.02	0.00603287
949.187	0.00572548
949.353	0.00628614
949.52	0.00636462
949.686	0.00671288
949.852	0.00638087
950.019	0.00631212
950.185	0.00646395
950.352	0.00627289
950.518	0.00571469
950.684	0.00536116
950.851	0.00446926
951.017	0.00424008
951.183	0.00372751
951.349	0.00286044
951.516	0.0030567
951.682	0.00261749
951.848	0.00247159
952.014	0.00224638
952.18	0.00213049
952.346	0.00251033
952.512	0.00299835
952.679	0.00247241
952.845	0.00256358
953.011	0.00242412
953.177	0.00298666
953.343	0.00333824
953.509	0.00281457
953.675	0.00247788
953.841	0.00255828
954.007	0.00254897
954.172	0.0025746
954.338	0.00217174
954.504	0.00191533
954.67	0.0019927
954.836	0.00145728
955.002	0.0012757
955.167	0.00129404
955.333	0.00153708
955.499	0.00141862
955.665	0.00120224
955.83	0.00090145
955.996	0.00184076
956.162	0.00188154
956.327	0.00222331
956.493	0.0023049
956.659	0.00257804
956.824	0.00251779
956.99	0.00259937
957.155	0.00235813
957.321	0.00246589
957.486	0.00250144
957.652	0.0019693
957.817	0.00184259
957.983	0.00249194
958.148	0.00257558
958.314	0.00232932
958.479	0.00207396
958.644	0.00196236
958.81	0.00233791
958.975	0.0023803
959.14	0.00156633
959.306	0.00138791
959.471	0.00154738
959.636	0.00195007
959.801	0.0017485
959.967	0.0015173
960.132	0.00165898
960.297	0.0020998
960.462	0.00225544
960.627	0.0022068
960.792	0.00193075
960.957	0.00204217
961.123	0.00196446
961.288	0.00164426
961.453	0.00154036
961.618	0.00146481
961.783	0.00135992
961.948	0.00161884
962.113	0.00147276
962.277	0.00157603
962.442	0.00133801
962.607	0.00140138
962.772	0.00142475
962.937	0.00163622
963.102	0.00161529
963.267	0.00156826
963.431	0.00147174
963.596	0.00184299
963.761	0.00167061
963.926	0.00154307
964.09	0.00123267
964.255	0.00095892
964.42	0.00073797
964.584	0.00100847
964.749	0.00099077
964.914	0.00103076
965.078	0.00154338
965.243	0.00172564
965.407	0.00160059
965.572	0.00166685
965.736	0.00111781
965.901	0.00089222
966.065	0.00080284
966.23	0.00059729
966.394	0.00072427
966.559	0.00085834
966.723	0.00091226
966.887	0.00153273
967.052	0.00184519
967.216	0.00202943
967.38	0.00180285
967.545	0.0014863
967.709	0.00144582
967.873	0.00177318
968.037	0.00168918
968.202	0.0015345
968.366	0.00151623
968.53	0.00138589
968.694	0.00143849
968.858	0.00178808
969.022	0.00166233
969.187	0.00126071
969.351	0.00126602
969.515	0.00137735
969.679	0.00140829
969.843	0.0015253
970.007	0.00125866
970.171	0.00105017
970.335	0.00106958
970.499	0.00091539
970.662	0.00067995
970.826	0.00078123
970.99	0.00086538
971.154	0.00100803
971.318	0.00097993
971.482	0.0013311
971.645	0.00138534
971.809	0.00122092
971.973	0.00148098
972.137	0.00105876
972.3	0.00078222
972.464	0.00102118
972.628	0.00082347
972.791	0.00142257
972.955	0.00148033
973.119	0.00114259
973.282	0.00129666
973.446	0.00143965
973.609	0.0015034
973.773	0.00173514
973.936	0.00140691
974.1	0.00124645
974.263	0.00126205
974.427	0.00132596
974.59	0.00169668
974.754	0.00179792
974.917	0.0018079
975.08	0.00192646
975.244	0.00231349
975.407	0.00257959
975.57	0.00246785
975.734	0.00242728
975.897	0.00238168
976.06	0.00217495
976.223	0.0020434
976.387	0.00167053
976.55	0.0015921
976.713	0.00194192
976.876	0.00159323
977.039	0.00121204
977.202	0.00088102
977.365	0.00066022
977.528	0.00095209
977.692	0.00102901
977.855	0.00103701
978.018	0.00102146
978.181	0.00120853
978.344	0.00119357
978.506	0.00156088
978.669	0.00154478
978.832	0.00143339
978.995	0.00116135
979.158	0.00099002
979.321	0.00128858
979.484	0.00163204
979.646	0.00137867
979.809	0.00148971
979.972	0.0015712
980.135	0.00171247
980.297	0.00185364
980.46	0.00149868
980.623	0.00138568
980.786	0.00105365
980.948	0.00079523
981.111	0.00072765
981.273	0.00065318
981.436	0.00074898
981.599	0.00081157
981.761	0.00070012
981.924	0.00097321
982.086	0.00127635
982.249	0.00135339
982.411	0.00140844
982.573	0.00115869
982.736	0.00108607
982.898	0.0015644
983.061	0.00144069
983.223	0.00133897
983.385	0.00125459
983.548	0.00115741
983.71	0.00120387
983.872	0.00105462
984.034	0.00083508
984.197	0.00083108
984.359	0.00093426
984.521	0.00068988
984.683	0.00074282
984.845	0.00091901
985.008	0.00108052
985.17	0.00086399
985.332	0.00097938
985.494	0.00132276
985.656	0.00162857
985.818	0.00144073
985.98	0.00170781
986.142	0.00203775
986.304	0.0018325
986.466	0.00175305
986.628	0.00098916
986.79	0.00037697
986.952	0.00037655
987.113	0.00021608
987.275	-0.00071482
987.437	-0.00027638
987.599	-0.0003584
987.761	-0.00044101
987.922	0.00058367
988.084	0.00117066
988.246	0.0013374
988.408	0.00221362
988.569	0.00194235
988.731	0.00248127
988.893	0.00282659
989.054	0.00205776
989.216	0.00130406
989.377	0.00097433
989.539	0.00074073
989.701	0.00134819
989.862	0.00087091
990.024	0.00112929
990.185	0.0013946
990.347	0.0019545
990.508	0.00156723
990.669	0.00143008
990.831	0.00080829
990.992	0.00114771
991.154	0.00087047
991.315	0.00080829
991.476	0.00028735
991.638	0.00130489
991.799	0.00149396
991.96	0.00137087
992.121	0.00152472
992.283	0.00142998
992.444	0.00129723
992.605	0.00151498
992.766	0.00083751
992.927	0.00020569
993.088	0.00037551
993.249	-0.00020456
993.41	-0.00033149
993.572	-0.00037185
993.733	-0.00032949
993.894	-0.00047331
994.055	0.00022052
994.216	0.00040495
994.376	0.00055115
994.537	0.00088936
994.698	0.00141494
994.859	0.00183714
995.02	0.00144958
995.181	0.00171146
995.342	0.00175826
995.503	0.00232584
995.663	0.00255014
995.824	0.00207479
995.985	0.00156276
996.146	0.00152916
996.306	0.001338
996.467	0.00107529
996.628	0.00045029
996.788	0.0005603
996.949	0.00125107
997.11	0.00202696
997.27	0.00352494
997.431	0.00379555
997.591	0.0036003
997.752	0.00366775
997.912	0.00391674
998.073	0.00285156
998.233	0.00189551
998.394	0.00019896
998.554	-0.00024055
998.714	0.00086779
998.875	0.00078622
999.035	0.00009129
999.196	0.00069406
999.356	0.00182351
999.516	0.00329716
999.676	0.00340766
999.837	0.0030579
999.997	0.00301835
1000.157	0.00301095
1000.317	0.00349544
1000.477	0.00253373
1000.638	0.00260037
1000.798	0.00257012
1000.958	0.00243708
1001.118	0.00277349
1001.278	0.0024813
1001.438	0.00246751
1001.598	0.00289329
1001.758	0.00239481
1001.918	0.00193995
1002.078	0.00085043
1002.238	0.00059234
1002.398	0.00136264
1002.558	0.00146307
1002.718	0.00165168
1002.878	0.00248445
1003.037	0.00307934
1003.197	0.00403744
1003.357	0.0040232
1003.517	0.00454036
1003.677	0.00343351
1003.836	0.00232315
1003.996	0.0014871
1004.156	0.00132173
1004.315	0.00201126
1004.475	0.00276499
1004.635	0.00073284
1004.794	0.00173109
1004.954	0.00119792
1005.114	0.00065956
1005.273	0.00160045
1005.433	0.00099042
1005.592	0.00042916
1005.752	0.00187182
1005.911	0.00109265
1006.071	0.00237183
1006.23	0.00296066
1006.389	0.00171967
1006.549	0.00059622
1006.708	0.00052044
1006.868	-0.00052399
1007.027	0.00015044
1007.186	0.00010355
1007.345	-0.00057848
1007.505	0.00057987
1007.664	0.00088298
1007.823	0.00154559
1007.982	0.00183037
1008.142	0.00128094
1008.301	0.00107305
1008.46	0.00064139
1008.619	-0.00001972
1008.778	0.00113686
1008.937	0.00031487
1009.096	0.00101522
1009.255	0.00256176
1009.414	0.00326018
1009.573	0.00452044
1009.732	0.00500882
1009.891	0.00447968
1010.05	0.00480624
1010.209	0.00386856
1010.368	0.00259895
1010.527	0.00326717
1010.686	0.00322437
1010.845	0.00251725
1011.003	0.00290528
1011.162	0.00300143
1011.321	0.00319287
1011.48	0.00210027
1011.638	0.0002338
1011.797	0.00012938
1011.956	-0.00099665
1012.115	-0.00066284
1012.273	-0.00025949
1012.432	0.00180896
1012.59	0.00307645
1012.749	0.00252535
1012.908	0.00401668
1013.066	0.00457339
1013.225	0.00474216
1013.383	0.00540864
1013.542	0.00376488
1013.7	0.00410624
1013.859	0.00685878
1014.017	0.00479789
1014.175	0.00707142
1014.334	0.00648784
1014.492	0.00457225
1014.65	0.00500781
1014.809	0.00441945
1014.967	0.00284859
1015.125	0.00577162
1015.284	0.00426999
1015.442	0.00580392
1015.6	0.0064577
1015.758	0.00833881
1015.916	0.00710977
1016.075	0.00759065
1016.233	0.00597573
1016.391	0.00702655
1016.549	0.00245669
1016.707	0.00192823
1016.865	-0.00203381
1017.023	-0.000299
1017.181	-0.00079517
1017.339	-0.00155578
1017.497	-0.00298494
1017.655	0.00022748
1017.813	0.00220972
1017.971	0.0045642
1018.129	0.00365057
1018.286	0.00511335
1018.444	0.00458422
1018.602	0.00616798
1018.76	0.00643412
1018.918	0.00457468
1019.075	0.00404352
1019.233	0.00641712
1019.391	0.00612035
1019.549	0.00706295
1019.706	0.00599598
1019.864	0.008291
1020.022	0.00867906
1020.179	0.00834798
1020.337	0.00473167
1020.494	0.00319296
1020.652	0.00361455
1020.809	0.00387507
1020.967	0.00272745
1021.124	0.00323301
1021.282	0.0063576
1021.439	0.00884473
1021.597	0.00934028
1021.754	0.00529823
1021.911	0.00483016
1022.069	0.00603479
1022.226	0.00545168
1022.384	0.00239533
1022.541	0.00353877
1022.698	0.00287716
1022.855	0.00734058
1023.013	0.00804682
1023.17	0.00706807
1023.327	0.00695098
1023.484	0.00802195
1023.641	0.00554562
1023.798	0.00809282
1023.956	0.00693792
1024.113	0.00806849
1024.27	0.00690468
1024.427	0.00803869
1024.584	0.00603698
1024.741	0.00667236
1024.898	0.0043219
1025.055	0.00425277
1025.212	0.00484404
1025.369	0.0056065
1025.525	0.0074361
1025.682	0.00941895
1025.839	0.00993553
1025.996	0.00833319
1026.153	0.01074266
1026.31	0.00890511
1026.466	0.00635188
1026.623	0.00394192
1026.78	0.00248417
1026.937	0.00401265
1027.093	0.01097904
1027.25	0.01019272
1027.407	0.01356833
1027.563	0.01537423
1027.72	0.01805493
1027.876	0.01882961
1028.033	0.02075579
1028.19	0.0199949
1028.346	0.01693123
1028.503	0.01229887
1028.659	0.0123617
1028.816	0.0105375
1028.972	0.01213575
1029.128	0.00798775
1029.285	0.00755287
1029.441	0.01204671
1029.598	0.01321925
1029.754	0.02097922
1029.91	0.02139332
1030.067	0.02127835
1030.223	0.02529618
1030.379	0.02307474
1030.535	0.02704321
1030.691	0.03103168
1030.848	0.02351025
1031.004	0.02212016
1031.16	0.02224038
1031.316	0.01585052
1031.472	0.02050267
1031.628	0.00969636
1031.784	0.00867237
1031.94	0.00886761
1032.096	0.00852902
1032.252	0.00856212
1032.408	0.0142805
1032.564	0.00791605
1032.72	0.0164032
1032.876	0.01477068
1033.032	0.0142733
1033.188	0.01433519
1033.344	0.01165911
1033.5	0.00722276
1033.655	0.01071329
1033.811	0.00515961
1033.967	0.00269323
