Data from 0_1_mm_pl_50pc_Absorbance__0__18-52-58-516.txt Node

Date: Wed Mar 01 18:52:58 CET 2023
User: Ange
Spectrometer: FLMT08341
Trigger mode: 0
Integration Time (sec): 1.000000E-2
Scans to average: 400
Electric dark correction enabled: true
Nonlinearity correction enabled: false
Boxcar width: 3
XAxis mode: Wavelengths
Number of Pixels in Spectrum: 3648
>>>>>Begin Spectral Data<<<<<
345.271	-0.00141988
345.487	-0.0031422
345.704	-0.01674078
345.921	-0.02242675
346.137	-0.0381914
346.354	-0.03688834
346.571	-0.04122896
346.787	-0.05501257
347.004	-0.00891154
347.22	-0.04049627
347.437	-0.02317054
347.653	-0.19162834
347.87	0.18740633
348.086	0.11565649
348.303	-0
348.519	0.01641054
348.736	0.02638222
348.952	0.02880229
349.169	0.02919659
349.385	0.0293748
349.601	0.02687148
349.818	0.02621957
350.034	0.02968328
350.251	0.03011949
350.467	0.0318387
350.683	0.02924823
350.9	0.02726406
351.116	0.02800067
351.332	0.02821965
351.549	0.02876046
351.765	0.02933071
351.981	0.02814196
352.197	0.03006082
352.414	0.03143543
352.63	0.03225515
352.846	0.03405942
353.062	0.03232079
353.278	0.03242562
353.495	0.03427651
353.711	0.03376669
353.927	0.03345792
354.143	0.03343277
354.359	0.03185046
354.575	0.03189168
354.792	0.03110757
355.008	0.0306082
355.224	0.03154283
355.44	0.03164922
355.656	0.03220798
355.872	0.03248351
356.088	0.03230128
356.304	0.03358847
356.52	0.03387512
356.736	0.03398664
356.952	0.03598982
357.168	0.03637053
357.384	0.03618036
357.6	0.03530454
357.816	0.03547794
358.032	0.03475871
358.248	0.03563628
358.464	0.03425488
358.679	0.03330517
358.895	0.03316005
359.111	0.03614996
359.327	0.03602549
359.543	0.03625749
359.759	0.03504109
359.974	0.03609601
360.19	0.03619975
360.406	0.0369698
360.622	0.03631058
360.838	0.03519828
361.053	0.03592914
361.269	0.03740018
361.485	0.03716694
361.701	0.03834907
361.916	0.0387925
362.132	0.03889334
362.348	0.03971185
362.563	0.0395566
362.779	0.03845406
362.995	0.03826735
363.21	0.03795001
363.426	0.03693699
363.641	0.03629959
363.857	0.03581266
364.073	0.03585252
364.288	0.03585665
364.504	0.03634681
364.719	0.03689864
364.935	0.03716126
365.15	0.03690265
365.366	0.03731819
365.581	0.03646583
365.797	0.03718247
366.012	0.03628755
366.228	0.0361815
366.443	0.03612369
366.658	0.03671638
366.874	0.03690082
367.089	0.03769029
367.305	0.03793838
367.52	0.03881962
367.735	0.03877961
367.951	0.03844854
368.166	0.03907294
368.381	0.03964833
368.597	0.03971845
368.812	0.03966317
369.027	0.0388148
369.243	0.03874263
369.458	0.03894983
369.673	0.03895306
369.888	0.03814956
370.104	0.03893641
370.319	0.03898502
370.534	0.0408205
370.749	0.04055843
370.964	0.04223877
371.179	0.04207771
371.395	0.0432404
371.61	0.04224388
371.825	0.04273691
372.04	0.04345019
372.255	0.04391309
372.47	0.04351424
372.685	0.04286484
372.9	0.0419708
373.115	0.04317676
373.33	0.04316992
373.545	0.04242449
373.76	0.04274684
373.975	0.04203643
374.19	0.04195524
374.405	0.04200072
374.62	0.04175515
374.835	0.04224819
375.05	0.04265512
375.265	0.04271209
375.48	0.04268287
375.695	0.04406873
375.91	0.04391389
376.125	0.0439667
376.339	0.04312478
376.554	0.04163617
376.769	0.04170063
376.984	0.04266901
377.199	0.04218171
377.414	0.04252824
377.628	0.04304376
377.843	0.04396126
378.058	0.044648
378.273	0.04442006
378.487	0.04414972
378.702	0.04458877
378.917	0.04487339
379.131	0.04500429
379.346	0.04366936
379.561	0.0437701
379.775	0.0435806
379.99	0.04381632
380.205	0.04392754
380.419	0.04422518
380.634	0.04385522
380.848	0.04460087
381.063	0.04511246
381.278	0.04607166
381.492	0.04619537
381.707	0.04593344
381.921	0.04557641
382.136	0.04597719
382.35	0.04626099
382.565	0.04669803
382.779	0.04635073
382.994	0.04672257
383.208	0.04716261
383.422	0.04786109
383.637	0.04756916
383.851	0.04808433
384.066	0.04780415
384.28	0.04840205
384.494	0.04841498
384.709	0.04856958
384.923	0.04914238
385.137	0.04917336
385.352	0.04879156
385.566	0.04898034
385.78	0.04874183
385.995	0.04838386
386.209	0.04852368
386.423	0.04787648
386.637	0.04850392
386.852	0.04847042
387.066	0.04865025
387.28	0.04838713
387.494	0.04890155
387.708	0.04833747
387.923	0.04867139
388.137	0.04847695
388.351	0.04888301
388.565	0.04907728
388.779	0.049662
388.993	0.05040677
389.207	0.05043255
389.421	0.05051481
389.635	0.05069134
389.85	0.05076522
390.064	0.05066397
390.278	0.05054259
390.492	0.05031836
390.706	0.05076866
390.92	0.050675
391.134	0.05075112
391.348	0.05122391
391.561	0.0510064
391.775	0.05143239
391.989	0.05113782
392.203	0.05146053
392.417	0.05158156
392.631	0.05200287
392.845	0.05190465
393.059	0.05283066
393.273	0.05247721
393.486	0.05206536
393.7	0.05168621
393.914	0.05230433
394.128	0.05199206
394.342	0.05181963
394.555	0.0514396
394.769	0.05121111
394.983	0.05174852
395.197	0.05232716
395.41	0.05224271
395.624	0.05224586
395.838	0.05258131
396.051	0.05237254
396.265	0.05285482
396.479	0.05297319
396.692	0.0528216
396.906	0.0527626
397.12	0.05318468
397.333	0.05307915
397.547	0.05340395
397.76	0.0537778
397.974	0.053952
398.187	0.05420695
398.401	0.05441864
398.614	0.05449405
398.828	0.05480554
399.041	0.05479669
399.255	0.05472247
399.468	0.05486528
399.682	0.05473483
399.895	0.05449193
400.109	0.05420874
400.322	0.05405347
400.536	0.0536874
400.749	0.05391557
400.962	0.05390447
401.176	0.05399252
401.389	0.05420963
401.602	0.0543995
401.816	0.05414482
402.029	0.05470686
402.242	0.05448069
402.456	0.05450275
402.669	0.05445975
402.882	0.05431931
403.095	0.05392135
403.309	0.0543645
403.522	0.0545459
403.735	0.05431037
403.948	0.05414916
404.161	0.05419693
404.375	0.05423268
404.588	0.05490596
404.801	0.05500128
405.014	0.05473559
405.227	0.05509833
405.44	0.05535859
405.653	0.05534428
405.866	0.05523869
406.079	0.05507962
406.293	0.05478344
406.506	0.05483211
406.719	0.05468129
406.932	0.05433149
407.145	0.05432371
407.358	0.05437305
407.571	0.05433551
407.784	0.05456369
407.996	0.05475087
408.209	0.05471501
408.422	0.05485921
408.635	0.05500902
408.848	0.05522255
409.061	0.05485563
409.274	0.05438754
409.487	0.05425734
409.7	0.05443351
409.912	0.05433248
410.125	0.05429599
410.338	0.05392235
410.551	0.05414554
410.764	0.05430249
410.976	0.05415809
411.189	0.05385999
411.402	0.05355062
411.615	0.05370755
411.827	0.05372683
412.04	0.05361044
412.253	0.05356347
412.465	0.05351123
412.678	0.05385347
412.891	0.05415809
413.103	0.05415732
413.316	0.05424031
413.529	0.05452091
413.741	0.05481513
413.954	0.05473509
414.166	0.05429048
414.379	0.05435142
414.591	0.05378939
414.804	0.05348259
415.016	0.05320131
415.229	0.05282265
415.441	0.05248016
415.654	0.05242067
415.866	0.05197139
416.079	0.05194489
416.291	0.0520209
416.504	0.05177189
416.716	0.0517953
416.928	0.05194044
417.141	0.0519731
417.353	0.05196924
417.566	0.05158796
417.778	0.05138844
417.99	0.05118297
418.203	0.050966
418.415	0.0507193
418.627	0.05056481
418.839	0.05047037
419.052	0.05077198
419.264	0.0508136
419.476	0.05088855
419.688	0.05061642
419.901	0.05066447
420.113	0.05055782
420.325	0.05063338
420.537	0.05036157
420.749	0.05018804
420.961	0.05013362
421.174	0.05028956
421.386	0.04999578
421.598	0.04968555
421.81	0.04945324
422.022	0.04949062
422.234	0.04938439
422.446	0.04918181
422.658	0.04882437
422.87	0.0488404
423.082	0.048822
423.294	0.04870712
423.506	0.04867524
423.718	0.04850448
423.93	0.04832277
424.142	0.0481942
424.354	0.04802559
424.566	0.0478745
424.778	0.04763655
424.99	0.04730354
425.202	0.04722514
425.414	0.04689899
425.625	0.04664363
425.837	0.0463153
426.049	0.04617653
426.261	0.04594969
426.473	0.04596392
426.684	0.04574153
426.896	0.04588595
427.108	0.0458979
427.32	0.04587196
427.531	0.04570527
427.743	0.04558947
427.955	0.04523559
428.167	0.04508475
428.378	0.04488455
428.59	0.0446062
428.802	0.04439745
429.013	0.04423534
429.225	0.0441567
429.436	0.04412015
429.648	0.04400351
429.86	0.04383267
430.071	0.04369861
430.283	0.04371596
430.494	0.04343207
430.706	0.04316743
430.917	0.04303008
431.129	0.04276463
431.34	0.04264388
431.552	0.04256559
431.763	0.04221988
431.975	0.04212214
432.186	0.04192253
432.398	0.04171503
432.609	0.0416366
432.821	0.04132839
433.032	0.04120407
433.243	0.0412065
433.455	0.04113778
433.666	0.04099353
433.877	0.04081302
434.089	0.04050766
434.3	0.04029939
434.511	0.04008383
434.723	0.03962437
434.934	0.0395765
435.145	0.03947261
435.356	0.03924468
435.568	0.03907135
435.779	0.03905952
435.99	0.03888596
436.201	0.03893705
436.412	0.03856251
436.624	0.03832249
436.835	0.03810973
437.046	0.03812201
437.257	0.03768074
437.468	0.0374181
437.679	0.03724586
437.89	0.03693951
438.101	0.03671335
438.312	0.03654398
438.523	0.03614649
438.734	0.03619815
438.945	0.03595222
439.156	0.03555785
439.367	0.03546983
439.578	0.03531115
439.789	0.03503972
440	0.03489465
440.211	0.0344681
440.422	0.03428851
440.633	0.03408688
440.844	0.0339559
441.055	0.0337672
441.266	0.03346871
441.477	0.03321252
441.687	0.03306206
441.898	0.03294117
442.109	0.03277818
442.32	0.03250745
442.531	0.03221833
442.741	0.03219411
442.952	0.03204096
443.163	0.03199343
443.374	0.03161355
443.584	0.03139289
443.795	0.03118356
444.006	0.03099384
444.216	0.03060658
444.427	0.03024675
444.638	0.02982666
444.848	0.02963934
445.059	0.02944672
445.27	0.02923819
445.48	0.0289674
445.691	0.02878444
445.901	0.02877099
446.112	0.02858704
446.323	0.02837283
446.533	0.0279911
446.744	0.02773516
446.954	0.02762056
447.165	0.02739573
447.375	0.02705431
447.586	0.02677768
447.796	0.02639505
448.006	0.02637255
448.217	0.0261728
448.427	0.02600623
448.638	0.02598534
448.848	0.0257106
449.058	0.02560056
449.269	0.02560506
449.479	0.02527432
449.689	0.02505766
449.9	0.02487078
450.11	0.02463745
450.32	0.02459553
450.531	0.02448674
450.741	0.0242983
450.951	0.02421834
451.161	0.02406352
451.372	0.02376309
451.582	0.02352081
451.792	0.02324897
452.002	0.02303818
452.212	0.02290072
452.422	0.02280207
452.633	0.02268857
452.843	0.02254667
453.053	0.02228809
453.263	0.02228305
453.473	0.02202757
453.683	0.02174357
453.893	0.0215022
454.103	0.02113265
454.313	0.0209333
454.523	0.02080812
454.733	0.02050899
454.943	0.02036972
455.153	0.02037662
455.363	0.02021103
455.573	0.02004856
455.783	0.02000213
455.993	0.01985759
456.203	0.01975478
456.413	0.01961918
456.623	0.01931634
456.833	0.01902329
457.042	0.01887012
457.252	0.01854327
457.462	0.01836949
457.672	0.0180945
457.882	0.01793661
458.091	0.01785597
458.301	0.0177338
458.511	0.01754895
458.721	0.01754011
458.931	0.01749584
459.14	0.01750982
459.35	0.01734726
459.56	0.01720407
459.769	0.0171815
459.979	0.01718754
460.189	0.01700202
460.398	0.01679541
460.608	0.01659401
460.817	0.01647276
461.027	0.01628239
461.237	0.0161908
461.446	0.01610248
461.656	0.01593043
461.865	0.01565697
462.075	0.01552929
462.284	0.01534409
462.494	0.01523148
462.703	0.01500479
462.913	0.01478034
463.122	0.01467817
463.332	0.01471775
463.541	0.01447612
463.751	0.01441777
463.96	0.01435632
464.169	0.0142624
464.379	0.01425354
464.588	0.01414179
464.797	0.01400192
465.007	0.01396999
465.216	0.01388983
465.425	0.01368282
465.635	0.0135822
465.844	0.01343248
466.053	0.0132871
466.263	0.01321589
466.472	0.01318494
466.681	0.01303258
466.89	0.01294465
467.099	0.01287112
467.309	0.01281391
467.518	0.01267882
467.727	0.01246207
467.936	0.01238076
468.145	0.01227778
468.354	0.01225297
468.563	0.01218025
468.772	0.01200222
468.982	0.01195721
469.191	0.01193766
469.4	0.01179691
469.609	0.01177156
469.818	0.01160327
470.027	0.01136407
470.236	0.01136536
470.445	0.01123342
470.654	0.01108019
470.863	0.01096403
471.072	0.01082141
471.28	0.01073278
471.489	0.01077894
471.698	0.0105787
471.907	0.01050937
472.116	0.01052314
472.325	0.0104139
472.534	0.01029185
472.743	0.01030048
472.951	0.01017862
473.16	0.01016468
473.369	0.01016672
473.578	0.01016465
473.786	0.01017636
473.995	0.01014426
474.204	0.01011482
474.413	0.01012412
474.621	0.01007797
474.83	0.01003856
475.039	0.00992097
475.247	0.00982445
475.456	0.00983124
475.665	0.00963546
475.873	0.00952484
476.082	0.00948586
476.291	0.00937854
476.499	0.00928821
476.708	0.00929964
476.916	0.00917787
477.125	0.0091531
477.333	0.0091886
477.542	0.00911904
477.75	0.00917839
477.959	0.00907631
478.167	0.00905355
478.376	0.00894335
478.584	0.00894896
478.793	0.00882771
479.001	0.00880461
479.209	0.00855822
479.418	0.00861212
479.626	0.00848967
479.834	0.00857324
480.043	0.00854171
480.251	0.0084801
480.459	0.0084413
480.668	0.00857908
480.876	0.00853727
481.084	0.00856691
481.293	0.00850013
481.501	0.0084653
481.709	0.0084195
481.917	0.00847249
482.125	0.00844605
482.334	0.0084134
482.542	0.00838958
482.75	0.00837646
482.958	0.00840357
483.166	0.00840022
483.374	0.00836126
483.583	0.00826657
483.791	0.00821686
483.999	0.00827352
484.207	0.00831448
484.415	0.00823001
484.623	0.00817525
484.831	0.008098
485.039	0.00810628
485.247	0.00816705
485.455	0.00810151
485.663	0.00803358
485.871	0.00813587
486.079	0.00814837
486.287	0.00815089
486.495	0.00813986
486.702	0.00808255
486.91	0.0080128
487.118	0.00801652
487.326	0.00795606
487.534	0.00796693
487.742	0.00795364
487.95	0.00795087
488.157	0.00791206
488.365	0.00799643
488.573	0.00798639
488.781	0.0080173
488.988	0.00802264
489.196	0.00803058
489.404	0.00807265
489.612	0.00810644
489.819	0.00807625
490.027	0.00814507
490.235	0.00814802
490.442	0.00814317
490.65	0.00813556
490.857	0.00813395
491.065	0.00816538
491.273	0.00815393
491.48	0.00807335
491.688	0.00803987
491.895	0.00812272
492.103	0.00806894
492.31	0.00803309
492.518	0.00800994
492.725	0.00796364
492.933	0.00795883
493.14	0.00797488
493.348	0.00795102
493.555	0.00801669
493.763	0.00801696
493.97	0.00800022
494.177	0.00805258
494.385	0.00812037
494.592	0.00812727
494.8	0.00809559
495.007	0.00808298
495.214	0.00811963
495.422	0.00819125
495.629	0.00826737
495.836	0.00830666
496.043	0.00832498
496.251	0.0083573
496.458	0.00840703
496.665	0.00845175
496.872	0.00848983
497.08	0.00847565
497.287	0.00849134
497.494	0.00847008
497.701	0.00849446
497.908	0.00852
498.115	0.00857277
498.322	0.00855727
498.53	0.00858887
498.737	0.00862392
498.944	0.00869872
499.151	0.0087686
499.358	0.00883996
499.565	0.00884905
499.772	0.00888643
499.979	0.00888374
500.186	0.00883403
500.393	0.00883595
500.6	0.00887111
500.807	0.0088575
501.014	0.00892309
501.221	0.0089795
501.427	0.00900328
501.634	0.00912616
501.841	0.00920626
502.048	0.00921714
502.255	0.00923195
502.462	0.00925492
502.669	0.00923402
502.875	0.00930163
503.082	0.00929985
503.289	0.00931842
503.496	0.0093352
503.702	0.00942423
503.909	0.00943043
504.116	0.00952311
504.323	0.00956856
504.529	0.00960262
504.736	0.00959418
504.943	0.009683
505.149	0.0097306
505.356	0.00981063
505.563	0.00987115
505.769	0.00991429
505.976	0.00994115
506.182	0.01006081
506.389	0.01007535
506.595	0.01008572
506.802	0.01007868
507.008	0.01009793
507.215	0.01008532
507.421	0.01016776
507.628	0.0101845
507.834	0.01020146
508.041	0.0102824
508.247	0.01034762
508.454	0.01034326
508.66	0.01041143
508.866	0.01045478
509.073	0.01051288
509.279	0.01062238
509.486	0.0106071
509.692	0.01067978
509.898	0.01083677
510.105	0.01094859
510.311	0.01099925
510.517	0.01104862
510.723	0.01111908
510.93	0.01125094
511.136	0.01127562
511.342	0.01123389
511.548	0.0112644
511.754	0.0112966
511.961	0.01135139
512.167	0.01134911
512.373	0.01131828
512.579	0.01143851
512.785	0.01158743
512.991	0.01164974
513.197	0.01172738
513.404	0.01183127
513.61	0.0119047
513.816	0.01202126
514.022	0.01198113
514.228	0.01202113
514.434	0.01213441
514.64	0.01219326
514.846	0.01222283
515.052	0.01223909
515.258	0.01227162
515.464	0.01239433
515.669	0.01244938
515.875	0.01247997
516.081	0.01257049
516.287	0.01264387
516.493	0.012788
516.699	0.01286337
516.905	0.0129264
517.111	0.01299028
517.316	0.01297427
517.522	0.01303204
517.728	0.01308122
517.934	0.01312007
518.139	0.01322736
518.345	0.01324851
518.551	0.01328473
518.757	0.01339339
518.962	0.01344558
519.168	0.01353274
519.374	0.0135952
519.579	0.01368614
519.785	0.01382696
519.991	0.01388695
520.196	0.01397506
520.402	0.01405838
520.607	0.01407092
520.813	0.01412181
521.018	0.01413769
521.224	0.01413118
521.429	0.01424895
521.635	0.01432266
521.84	0.01439038
522.046	0.01452246
522.251	0.0146494
522.457	0.01472819
522.662	0.01487245
522.868	0.01491916
523.073	0.01499546
523.279	0.01509392
523.484	0.01513906
523.689	0.01514352
523.895	0.01520468
524.1	0.01522653
524.305	0.01539447
524.511	0.01545551
524.716	0.01551931
524.921	0.01559976
525.126	0.01573806
525.332	0.01585751
525.537	0.01595329
525.742	0.01590094
525.947	0.01599931
526.153	0.01605432
526.358	0.01612241
526.563	0.01619486
526.768	0.01625371
526.973	0.01632405
527.178	0.01645735
527.383	0.01654901
527.588	0.01665985
527.794	0.01677031
527.999	0.01685849
528.204	0.01699133
528.409	0.0171516
528.614	0.01724063
528.819	0.01729991
529.024	0.01738291
529.229	0.01748682
529.434	0.0175794
529.639	0.01759828
529.843	0.01766514
530.048	0.0177744
530.253	0.01790713
530.458	0.01800602
530.663	0.01812889
530.868	0.01819891
531.073	0.01832202
531.278	0.01837106
531.482	0.01844532
531.687	0.01850803
531.892	0.01862095
532.097	0.01868731
532.302	0.01881881
532.506	0.01893001
532.711	0.01906317
532.916	0.01917962
533.12	0.01924973
533.325	0.01934047
533.53	0.01943953
533.734	0.01954585
533.939	0.01968292
534.144	0.01983131
534.348	0.01990576
534.553	0.02005016
534.757	0.02015846
534.962	0.02026823
535.167	0.0203691
535.371	0.02042654
535.576	0.02045874
535.78	0.02061371
535.985	0.02073165
536.189	0.02084198
536.394	0.02095613
536.598	0.02100688
536.803	0.02111551
537.007	0.02126222
537.211	0.02132031
537.416	0.02137812
537.62	0.0214488
537.825	0.02152849
538.029	0.02170078
538.233	0.02181094
538.438	0.02194026
538.642	0.02209621
538.846	0.02224233
539.05	0.02236872
539.255	0.02248376
539.459	0.02258023
539.663	0.02270611
539.867	0.02277393
540.072	0.02281815
540.276	0.02294953
540.48	0.02304854
540.684	0.02312312
540.888	0.02322992
541.092	0.02330057
541.297	0.02340681
541.501	0.02354832
541.705	0.02361722
541.909	0.02373721
542.113	0.02390018
542.317	0.02399983
542.521	0.02414231
542.725	0.02423964
542.929	0.02436643
543.133	0.0245482
543.337	0.0246762
543.541	0.02480908
543.745	0.02495077
543.949	0.02508779
544.153	0.02522418
544.357	0.02540485
544.56	0.02551849
544.764	0.02564713
544.968	0.02574251
545.172	0.02586185
545.376	0.0259741
545.58	0.02607031
545.783	0.02614465
545.987	0.0262511
546.191	0.02639185
546.395	0.0265513
546.598	0.02664123
546.802	0.02678019
547.006	0.02695643
547.21	0.02707125
547.413	0.02717098
547.617	0.02727316
547.821	0.02736126
548.024	0.02751441
548.228	0.02760726
548.431	0.02772003
548.635	0.02784925
548.839	0.02797
549.042	0.02806687
549.246	0.02820965
549.449	0.02833189
549.653	0.02847807
549.856	0.02862294
550.06	0.02874818
550.263	0.02890667
550.467	0.02901499
550.67	0.02915197
550.874	0.02928375
551.077	0.02946964
551.28	0.02958513
551.484	0.02972525
551.687	0.02984558
551.891	0.0300225
552.094	0.03014989
552.297	0.03034515
552.501	0.03044948
552.704	0.03057724
552.907	0.03074037
553.11	0.03089849
553.314	0.03105708
553.517	0.0311476
553.72	0.03120615
553.923	0.03129004
554.127	0.03145667
554.33	0.0315554
554.533	0.03167113
554.736	0.03179065
554.939	0.03197196
555.142	0.03213114
555.345	0.03228016
555.549	0.03243313
555.752	0.03256075
555.955	0.03268335
556.158	0.03284912
556.361	0.03296173
556.564	0.03308745
556.767	0.03320343
556.97	0.03330639
557.173	0.03341154
557.376	0.03356194
557.579	0.03364616
557.782	0.03380567
557.984	0.03395247
558.187	0.03415604
558.39	0.03427487
558.593	0.03448622
558.796	0.03466808
558.999	0.03483729
559.202	0.03498671
559.404	0.03511517
559.607	0.03528326
559.81	0.03548622
560.013	0.03559813
560.216	0.03569464
560.418	0.03584535
560.621	0.03600936
560.824	0.0361803
561.026	0.03628766
561.229	0.03641174
561.432	0.03657636
561.634	0.03673695
561.837	0.03691292
562.04	0.03705059
562.242	0.03722274
562.445	0.03737073
562.647	0.0375131
562.85	0.03768519
563.053	0.03786482
563.255	0.03799003
563.458	0.03818277
563.66	0.03830624
563.863	0.03844937
564.065	0.03858355
564.268	0.03872223
564.47	0.03883368
564.672	0.03896394
564.875	0.03905947
565.077	0.03925034
565.28	0.03940139
565.482	0.03958508
565.684	0.03970205
565.887	0.03985683
566.089	0.04002172
566.291	0.04018032
566.494	0.04024108
566.696	0.04042898
566.898	0.04053951
567.1	0.04073492
567.303	0.04090074
567.505	0.04103793
567.707	0.04115577
567.909	0.04134733
568.111	0.04147754
568.314	0.04164115
568.516	0.04178969
568.718	0.04192607
568.92	0.04208457
569.122	0.04224432
569.324	0.04244377
569.526	0.04258098
569.728	0.0427278
569.93	0.04282812
570.132	0.0429631
570.334	0.04312786
570.536	0.0432737
570.738	0.04336781
570.94	0.0434974
571.142	0.04367332
571.344	0.04384084
571.546	0.0440398
571.748	0.04418166
571.95	0.04435239
572.152	0.04450444
572.354	0.04465035
572.555	0.04481436
572.757	0.04499178
572.959	0.0451231
573.161	0.04527867
573.363	0.04541063
573.564	0.04559583
573.766	0.04581432
573.968	0.0459775
574.17	0.04609992
574.371	0.04626623
574.573	0.04643895
574.775	0.04661199
574.976	0.04674622
575.178	0.04686072
575.38	0.04698065
575.581	0.04713459
575.783	0.04726626
575.985	0.04741529
576.186	0.04757083
576.388	0.04771432
576.589	0.0478802
576.791	0.04808711
576.992	0.0482503
577.194	0.04843118
577.395	0.04857182
577.597	0.04871636
577.798	0.04890845
578	0.04901561
578.201	0.04916853
578.402	0.04928981
578.604	0.04944265
578.805	0.0495909
579.007	0.04975302
579.208	0.04989564
579.409	0.05007324
579.611	0.05018497
579.812	0.05038379
580.013	0.05054642
580.215	0.05067922
580.416	0.05087291
580.617	0.05106556
580.818	0.05120556
581.019	0.0513833
581.221	0.05154907
581.422	0.05166217
581.623	0.05187151
581.824	0.05196828
582.025	0.05203262
582.226	0.05221562
582.428	0.0523794
582.629	0.05250935
582.83	0.05264837
583.031	0.05278748
583.232	0.05295329
583.433	0.05314727
583.634	0.05327835
583.835	0.0533861
584.036	0.05356299
584.237	0.05377259
584.438	0.05391267
584.639	0.05403725
584.84	0.05419014
585.041	0.0543232
585.242	0.0544778
585.442	0.05457482
585.643	0.0547141
585.844	0.05484966
586.045	0.05500982
586.246	0.05514427
586.447	0.05531172
586.647	0.0554569
586.848	0.05562749
587.049	0.05576158
587.25	0.05591935
587.45	0.05605584
587.651	0.0561668
587.852	0.05630291
588.053	0.0564956
588.253	0.05661861
588.454	0.05674118
588.655	0.05680707
588.855	0.05696397
589.056	0.05711917
589.256	0.05725246
589.457	0.05733559
589.658	0.05748673
589.858	0.05760494
590.059	0.05780567
590.259	0.0579955
590.46	0.05818899
590.66	0.05832751
590.861	0.05849575
591.061	0.05864692
591.262	0.05882343
591.462	0.05895711
591.662	0.05904627
591.863	0.0591026
592.063	0.05926782
592.264	0.05935245
592.464	0.05947976
592.664	0.05961373
592.865	0.05981472
593.065	0.0599398
593.265	0.06010276
593.465	0.06019567
593.666	0.0603274
593.866	0.0604688
594.066	0.06065066
594.266	0.06071056
594.467	0.0607982
594.667	0.06095196
594.867	0.06113879
595.067	0.06127346
595.267	0.06138253
595.467	0.06143976
595.668	0.06154393
595.868	0.06172269
596.068	0.0618164
596.268	0.06189346
596.468	0.06206319
596.668	0.06219454
596.868	0.06232658
597.068	0.06243895
597.268	0.06257176
597.468	0.06275029
597.668	0.06289737
597.868	0.06302687
598.068	0.06315358
598.268	0.06327058
598.467	0.06346613
598.667	0.0635521
598.867	0.06359557
599.067	0.06372931
599.267	0.06382573
599.467	0.06396878
599.667	0.06407786
599.866	0.06416149
600.066	0.06429987
600.266	0.06445364
600.466	0.06453607
600.665	0.06463982
600.865	0.06475758
601.065	0.06484533
601.264	0.06495334
601.464	0.06504062
601.664	0.06519908
601.863	0.06530517
602.063	0.06541226
602.263	0.0654204
602.462	0.06557584
602.662	0.06565533
602.861	0.06580344
603.061	0.06586289
603.26	0.06593224
603.46	0.06600163
603.659	0.06622106
603.859	0.06626391
604.058	0.0664078
604.258	0.066487
604.457	0.06657518
604.657	0.06665814
604.856	0.06673817
605.056	0.06675011
605.255	0.06687162
605.454	0.06692027
605.654	0.06694819
605.853	0.06705403
606.052	0.06719125
606.252	0.06732475
606.451	0.06747483
606.65	0.06755912
606.849	0.0676454
607.049	0.06777582
607.248	0.0678845
607.447	0.06799112
607.646	0.06809163
607.845	0.06814192
608.045	0.06821242
608.244	0.06836006
608.443	0.06849411
608.642	0.06861714
608.841	0.06873551
609.04	0.06878928
609.239	0.0689185
609.438	0.06903703
609.637	0.06912568
609.836	0.06919147
610.035	0.06917586
610.234	0.06924012
610.433	0.06936434
610.632	0.06941881
610.831	0.06953822
611.03	0.06960984
611.229	0.06974919
611.428	0.06987437
611.627	0.06996883
611.826	0.07006593
612.025	0.0702289
612.224	0.07027549
612.422	0.0703459
612.621	0.07039706
612.82	0.07048373
613.019	0.07057025
613.218	0.07068473
613.416	0.07066506
613.615	0.07077385
613.814	0.0708938
614.012	0.07089809
614.211	0.07096868
614.41	0.07104058
614.608	0.07103603
614.807	0.07110345
615.006	0.07118019
615.204	0.07120944
615.403	0.071342
615.602	0.0714753
615.8	0.07158239
615.999	0.07169053
616.197	0.07180959
616.396	0.07193258
616.594	0.07202701
616.793	0.07212612
616.991	0.07210662
617.19	0.07207193
617.388	0.07217965
617.586	0.07224389
617.785	0.07222872
617.983	0.07225327
618.182	0.07226991
618.38	0.07237071
618.578	0.07249728
618.777	0.07255867
618.975	0.07261652
619.173	0.07271952
619.372	0.07278267
619.57	0.07285572
619.768	0.07293504
619.966	0.07297637
620.165	0.07299386
620.363	0.07306619
620.561	0.07305649
620.759	0.07314987
620.957	0.07324407
621.155	0.07333277
621.354	0.07336602
621.552	0.07347123
621.75	0.07348418
621.948	0.07360594
622.146	0.07369417
622.344	0.0737193
622.542	0.07376027
622.74	0.07384879
622.938	0.07380702
623.136	0.07392938
623.334	0.07400471
623.532	0.07400118
623.73	0.07405962
623.928	0.0741794
624.126	0.07425505
624.324	0.07440676
624.522	0.07440062
624.719	0.07439485
624.917	0.07443979
625.115	0.0744912
625.313	0.07447868
625.511	0.07452872
625.708	0.07448715
625.906	0.07457926
626.104	0.07466055
626.302	0.07478585
626.499	0.07484849
626.697	0.07485937
626.895	0.07484615
627.093	0.07493671
627.29	0.07499836
627.488	0.07508707
627.686	0.07512106
627.883	0.07513387
628.081	0.07516847
628.278	0.07536316
628.476	0.07534241
628.673	0.07535562
628.871	0.07533233
629.068	0.07537001
629.266	0.07545712
629.463	0.07550157
629.661	0.0754644
629.858	0.07554289
630.056	0.07559241
630.253	0.07564513
630.451	0.07569903
630.648	0.07569833
630.845	0.07573472
631.043	0.07573466
631.24	0.07582195
631.438	0.07587233
631.635	0.0758819
631.832	0.07585599
632.029	0.07591361
632.227	0.07592994
632.424	0.07596499
632.621	0.07598852
632.818	0.07596777
633.016	0.07601699
633.213	0.07601456
633.41	0.07605084
633.607	0.07610226
633.804	0.07615818
634.001	0.07613911
634.199	0.07622936
634.396	0.07627592
634.593	0.0763547
634.79	0.07640602
634.987	0.07648171
635.184	0.07651564
635.381	0.07658018
635.578	0.07662086
635.775	0.07660739
635.972	0.07661818
636.169	0.07659846
636.366	0.0765841
636.563	0.07654367
636.76	0.07651565
636.957	0.07648887
637.153	0.07651672
637.35	0.07659256
637.547	0.07661643
637.744	0.07665534
637.941	0.07671367
638.138	0.07679327
638.334	0.07679039
638.531	0.0768326
638.728	0.07681076
638.925	0.07688404
639.121	0.07687861
639.318	0.07693293
639.515	0.0769402
639.711	0.07703757
639.908	0.07703958
640.105	0.07703752
640.301	0.07701472
640.498	0.07704397
640.695	0.07705586
640.891	0.07704821
641.088	0.07701477
641.284	0.07704935
641.481	0.07708474
641.677	0.0770869
641.874	0.07707219
642.07	0.07710019
642.267	0.07712735
642.463	0.07714178
642.66	0.0771791
642.856	0.07713148
643.053	0.07708465
643.249	0.07713091
643.445	0.07713752
643.642	0.07714013
643.838	0.07717802
644.034	0.07717999
644.231	0.07724643
644.427	0.07731188
644.623	0.07730555
644.82	0.07733372
645.016	0.07735399
645.212	0.07730929
645.408	0.07729795
645.604	0.07734459
645.801	0.07738384
645.997	0.07741214
646.193	0.07734304
646.389	0.07735753
646.585	0.07738887
646.781	0.07744986
646.977	0.077461
647.173	0.07745081
647.37	0.07742049
647.566	0.07750935
647.762	0.07748118
647.958	0.07753844
648.154	0.07750628
648.35	0.07750199
648.546	0.07751984
648.742	0.07760576
648.937	0.07751927
649.133	0.0775615
649.329	0.07758419
649.525	0.07760428
649.721	0.07757893
649.917	0.07760922
650.113	0.07754434
650.309	0.07759658
650.504	0.07757434
650.7	0.07751963
650.896	0.07753674
651.092	0.07753377
651.287	0.07747838
651.483	0.07753796
651.679	0.07751874
651.875	0.07759619
652.07	0.07760403
652.266	0.07759724
652.462	0.07761734
652.657	0.07764496
652.853	0.07762055
653.048	0.07764499
653.244	0.07757376
653.44	0.07755039
653.635	0.07749693
653.831	0.0775311
654.026	0.07755962
654.222	0.0775763
654.417	0.07762825
654.613	0.07768459
654.808	0.07769983
655.004	0.07776726
655.199	0.07772212
655.394	0.0777244
655.59	0.07776468
655.785	0.07772414
655.98	0.07772123
656.176	0.07775357
656.371	0.07781523
656.566	0.07788286
656.762	0.07785884
656.957	0.07788076
657.152	0.07791635
657.348	0.07793951
657.543	0.07792235
657.738	0.07789871
657.933	0.0778148
658.128	0.07782787
658.324	0.07775635
658.519	0.07770309
658.714	0.07769894
658.909	0.07769893
659.104	0.07766307
659.299	0.07771104
659.494	0.07768202
659.689	0.07771676
659.884	0.07774923
660.079	0.07772001
660.274	0.07776585
660.469	0.07773894
660.664	0.07773994
660.859	0.07774389
661.054	0.07772155
661.249	0.07769398
661.444	0.07769715
661.639	0.07764999
661.834	0.07767676
662.029	0.07767199
662.224	0.07770624
662.418	0.07768375
662.613	0.07767793
662.808	0.07767488
663.003	0.07768497
663.198	0.07765813
663.392	0.07765619
663.587	0.07768561
663.782	0.07774127
663.977	0.07775605
664.171	0.07779249
664.366	0.0778248
664.561	0.07787508
664.755	0.07794232
664.95	0.07791127
665.144	0.07788795
665.339	0.07793142
665.534	0.07794677
665.728	0.0779671
665.923	0.07801132
666.117	0.07800673
666.312	0.07800269
666.506	0.07808875
666.701	0.07803932
666.895	0.0779804
667.09	0.07793313
667.284	0.07790965
667.479	0.07786989
667.673	0.07789359
667.867	0.07783834
668.062	0.07785664
668.256	0.07790596
668.45	0.07797736
668.645	0.07795193
668.839	0.07800237
669.033	0.07798256
669.228	0.07796637
669.422	0.0780528
669.616	0.07806099
669.81	0.07803293
670.004	0.07800015
670.199	0.07796508
670.393	0.07795392
670.587	0.0779701
670.781	0.07790375
670.975	0.07791951
671.169	0.07790756
671.363	0.07794847
671.558	0.07796214
671.752	0.07802545
671.946	0.07806838
672.14	0.07809701
672.334	0.07806027
672.528	0.0781312
672.722	0.07810303
672.916	0.0781321
673.11	0.07809895
673.304	0.0781101
673.497	0.0781189
673.691	0.0781573
673.885	0.07811105
674.079	0.07818535
674.273	0.07816119
674.467	0.07821146
674.661	0.07816749
674.854	0.07820804
675.048	0.07824328
675.242	0.07827419
675.436	0.07826253
675.629	0.07829661
675.823	0.07828242
676.017	0.07832235
676.211	0.07830059
676.404	0.07829923
676.598	0.07826854
676.792	0.07831053
676.985	0.07833316
677.179	0.07833339
677.372	0.07831756
677.566	0.07834506
677.76	0.07837328
677.953	0.07842434
678.147	0.07840934
678.34	0.07843755
678.534	0.07847626
678.727	0.07855401
678.921	0.07856457
679.114	0.07857649
679.307	0.07860857
679.501	0.07865725
679.694	0.07862735
679.888	0.07863754
680.081	0.07864786
680.274	0.07861941
680.468	0.07860392
680.661	0.07860109
680.854	0.07861343
681.048	0.0786406
681.241	0.07867253
681.434	0.07869336
681.627	0.07874489
681.821	0.07876297
682.014	0.07880317
682.207	0.0787821
682.4	0.07882881
682.593	0.07883177
682.786	0.07880344
682.98	0.07879998
683.173	0.07883769
683.366	0.07884906
683.559	0.07889581
683.752	0.0789365
683.945	0.07896238
684.138	0.07901394
684.331	0.07905727
684.524	0.07912537
684.717	0.07914073
684.91	0.07916031
685.103	0.07915132
685.296	0.07917791
685.489	0.07925127
685.682	0.07927646
685.874	0.07927565
686.067	0.07928392
686.26	0.07931344
686.453	0.07934788
686.646	0.07936871
686.839	0.07938421
687.031	0.07941675
687.224	0.07937601
687.417	0.07940795
687.61	0.07940858
687.802	0.07939141
687.995	0.07944327
688.188	0.07942964
688.38	0.07943206
688.573	0.07949201
688.766	0.07949482
688.958	0.07952136
689.151	0.07955538
689.343	0.07958436
689.536	0.079605
689.729	0.07964079
689.921	0.07969422
690.114	0.0797422
690.306	0.07978059
690.499	0.07985891
690.691	0.07987572
690.884	0.07988142
691.076	0.07992857
691.268	0.07993001
691.461	0.07993111
691.653	0.07995137
691.846	0.079984
692.038	0.08001877
692.23	0.08004706
692.423	0.080104
692.615	0.08013641
692.807	0.08016363
692.999	0.0802138
693.192	0.08016733
693.384	0.08021356
693.576	0.08022287
693.768	0.08021112
693.961	0.08024782
694.153	0.08031067
694.345	0.0803307
694.537	0.08042621
694.729	0.08041079
694.921	0.08043577
695.113	0.08047793
695.305	0.08049618
695.498	0.08049406
695.69	0.08056224
695.882	0.08056492
696.074	0.08062985
696.266	0.08070508
696.458	0.08072993
696.65	0.08085233
696.842	0.08093725
697.033	0.08095135
697.225	0.0809937
697.417	0.0810622
697.609	0.0811163
697.801	0.08117463
697.993	0.08118892
698.185	0.08122947
698.376	0.08126788
698.568	0.08130786
698.76	0.08133912
698.952	0.0813437
699.144	0.08137536
699.335	0.081412
699.527	0.08144052
699.719	0.08150252
699.91	0.08157
700.102	0.08158164
700.294	0.08164912
700.485	0.08168711
700.677	0.0816716
700.869	0.08171402
701.06	0.0817869
701.252	0.08180815
701.443	0.08184695
701.635	0.08188128
701.826	0.08194446
702.018	0.08199747
702.209	0.08205902
702.401	0.08205225
702.592	0.08212293
702.784	0.08212495
702.975	0.08216286
703.166	0.08219699
703.358	0.08223941
703.549	0.08229515
703.741	0.08236557
703.932	0.0823487
704.123	0.08242849
704.315	0.0825013
704.506	0.08257322
704.697	0.08261928
704.888	0.08270375
705.08	0.08271019
705.271	0.08280414
705.462	0.08283425
705.653	0.08286153
705.844	0.08288055
706.035	0.08294811
706.227	0.08291665
706.418	0.08298863
706.609	0.08299408
706.8	0.08305392
706.991	0.08305876
707.182	0.08312023
707.373	0.08310709
707.564	0.08315697
707.755	0.08317318
707.946	0.08328006
708.137	0.0833157
708.328	0.08337842
708.519	0.08340065
708.71	0.08345338
708.901	0.08350827
709.092	0.0835654
709.283	0.08359347
709.473	0.08365157
709.664	0.08376112
709.855	0.08383989
710.046	0.0839162
710.237	0.08393657
710.427	0.0839741
710.618	0.08401976
710.809	0.08405558
711	0.08405695
711.19	0.08405581
711.381	0.08411695
711.572	0.08420495
711.762	0.08428616
711.953	0.08431688
712.144	0.08440619
712.334	0.084488
712.525	0.08459894
712.715	0.08465505
712.906	0.08465693
713.097	0.08465515
713.287	0.08471977
713.478	0.08476635
713.668	0.08480904
713.859	0.08486007
714.049	0.08492341
714.239	0.08503596
714.43	0.08512583
714.62	0.08517943
714.811	0.08523231
715.001	0.08528145
715.191	0.08529703
715.382	0.08530371
715.572	0.08536597
715.762	0.08542973
715.953	0.08550017
716.143	0.08553638
716.333	0.0855879
716.523	0.08561613
716.714	0.08574184
716.904	0.08579525
717.094	0.08585892
717.284	0.0859007
717.474	0.08592271
717.664	0.08598712
717.855	0.0861227
718.045	0.08613327
718.235	0.08617467
718.425	0.08623626
718.615	0.0862995
718.805	0.08642224
718.995	0.08652118
719.185	0.08656483
719.375	0.08667455
719.565	0.08670762
719.755	0.08673539
719.945	0.08677313
720.135	0.08682975
720.325	0.08685124
720.515	0.08693215
720.704	0.0869835
720.894	0.08710504
721.084	0.08719779
721.274	0.08729675
721.464	0.08740264
721.654	0.08746919
721.843	0.08752415
722.033	0.08754616
722.223	0.08758288
722.413	0.08766646
722.602	0.08773506
722.792	0.08776083
722.982	0.08781885
723.171	0.08782941
723.361	0.08792449
723.55	0.08797754
723.74	0.08798229
723.93	0.08801416
724.119	0.08808483
724.309	0.08815715
724.498	0.08821838
724.688	0.08829641
724.877	0.08834907
725.067	0.08844083
725.256	0.08846935
725.446	0.08849143
725.635	0.08853362
725.825	0.08860116
726.014	0.08862612
726.203	0.08867666
726.393	0.08871848
726.582	0.08879095
726.771	0.08889612
726.961	0.0889876
727.15	0.08901741
727.339	0.08898826
727.529	0.0890122
727.718	0.08902429
727.907	0.08908682
728.096	0.0890752
728.286	0.0890515
728.475	0.089077
728.664	0.08916631
728.853	0.08921633
729.042	0.08926313
729.231	0.08927793
729.42	0.08924791
729.609	0.08925933
729.799	0.08927175
729.988	0.08928543
730.177	0.08931313
730.366	0.08934316
730.555	0.0894002
730.744	0.08950252
730.933	0.08954281
731.122	0.08963166
731.31	0.08970039
731.499	0.08973383
731.688	0.08978033
731.877	0.08976601
732.066	0.08979115
732.255	0.08983389
732.444	0.08983425
732.632	0.0898308
732.821	0.08985229
733.01	0.0898989
733.199	0.08990357
733.388	0.08989972
733.576	0.08992632
733.765	0.08994486
733.954	0.09006392
734.142	0.0901114
734.331	0.09012647
734.52	0.09021687
734.708	0.09025295
734.897	0.09030413
735.086	0.09035889
735.274	0.09029139
735.463	0.09030907
735.651	0.09034869
735.84	0.09039842
736.028	0.09045194
736.217	0.09048509
736.405	0.09052758
736.594	0.09060481
736.782	0.0906086
736.971	0.09064492
737.159	0.09066781
737.347	0.09073391
737.536	0.09078041
737.724	0.09081885
737.912	0.09081104
738.101	0.09090963
738.289	0.09095121
738.477	0.09096254
738.666	0.09094745
738.854	0.09090936
739.042	0.09096818
739.23	0.09101149
739.418	0.09100228
739.607	0.09104388
739.795	0.09110707
739.983	0.09118331
740.171	0.09124755
740.359	0.09123648
740.547	0.09128818
740.735	0.09133008
740.923	0.09128441
741.112	0.09131179
741.3	0.09132239
741.488	0.09132392
741.676	0.09140032
741.864	0.09150864
742.052	0.09156519
742.239	0.09159866
742.427	0.09156906
742.615	0.09156366
742.803	0.09166008
742.991	0.09158291
743.179	0.09151241
743.367	0.09153642
743.555	0.09165078
743.742	0.09176631
743.93	0.09180923
744.118	0.09179552
744.306	0.0918551
744.494	0.09190956
744.681	0.0919414
744.869	0.09195465
745.057	0.09191304
745.244	0.09196804
745.432	0.0920098
745.62	0.09208448
745.807	0.09212342
745.995	0.09211525
746.182	0.09208942
746.37	0.09214612
746.558	0.09215247
746.745	0.09214723
746.933	0.09214463
747.12	0.09215502
747.308	0.09219583
747.495	0.09223461
747.683	0.09222407
747.87	0.09224306
748.057	0.09227236
748.245	0.09229399
748.432	0.09225417
748.62	0.09226467
748.807	0.09227554
748.994	0.09230155
749.182	0.09236208
749.369	0.09240259
749.556	0.09249953
749.743	0.09256528
749.931	0.09254608
750.118	0.09257418
750.305	0.09256719
750.492	0.09249244
750.68	0.09249257
750.867	0.09238535
751.054	0.09238229
751.241	0.0924085
751.428	0.09241992
751.615	0.09248736
751.802	0.09256806
751.989	0.09259035
752.176	0.09265992
752.363	0.09271439
752.55	0.09270319
752.737	0.09271955
752.924	0.09268672
753.111	0.09267147
753.298	0.0926822
753.485	0.09270422
753.672	0.09264402
753.859	0.09268506
754.046	0.09265389
754.233	0.09268013
754.42	0.09270933
754.606	0.09272008
754.793	0.09271526
754.98	0.09275378
755.167	0.09276218
755.353	0.09282329
755.54	0.09284944
755.727	0.09282182
755.914	0.0928248
756.1	0.09283346
756.287	0.09284754
756.474	0.09286563
756.66	0.09281165
756.847	0.09276566
757.033	0.09275835
757.22	0.09276303
757.407	0.09278443
757.593	0.09280599
757.78	0.09279431
757.966	0.09283795
758.153	0.09288844
758.339	0.09289432
758.526	0.09287673
758.712	0.0927879
758.898	0.09275428
759.085	0.09274819
759.271	0.09273777
759.458	0.09267651
759.644	0.09269577
759.83	0.09268984
760.017	0.0927306
760.203	0.092735
760.389	0.09269285
760.576	0.09264083
760.762	0.09260131
760.948	0.09257973
761.134	0.09260561
761.32	0.09261033
761.507	0.09259714
761.693	0.09268183
761.879	0.09269811
762.065	0.09275305
762.251	0.09276541
762.437	0.09274154
762.623	0.09275966
762.809	0.09273585
762.995	0.09269933
763.181	0.09270573
763.367	0.09271276
763.553	0.09270565
763.739	0.09271047
763.925	0.09265914
764.111	0.09268957
764.297	0.09267413
764.483	0.09263353
764.669	0.09253863
764.855	0.09251352
765.041	0.09247606
765.227	0.0924616
765.412	0.09245013
765.598	0.09244643
765.784	0.09254171
765.97	0.09267524
766.156	0.09269084
766.341	0.09272975
766.527	0.09274811
766.713	0.09271103
766.898	0.09266109
767.084	0.09259471
767.27	0.09247556
767.455	0.09237824
767.641	0.09230018
767.827	0.092261
768.012	0.09226505
768.198	0.0922637
768.383	0.09220727
768.569	0.09217643
768.754	0.09216654
768.94	0.09211625
769.125	0.09206079
769.311	0.09200948
769.496	0.09196408
769.682	0.09193735
769.867	0.09190017
770.052	0.09190462
770.238	0.0919191
770.423	0.09189179
770.608	0.0918655
770.794	0.09181285
770.979	0.09175213
771.164	0.09177271
771.35	0.09172518
771.535	0.09173815
771.72	0.09169216
771.905	0.09166237
772.09	0.09174074
772.276	0.09176695
772.461	0.09173213
772.646	0.09172898
772.831	0.0916507
773.016	0.09166257
773.201	0.09159491
773.386	0.0915062
773.571	0.09147212
773.756	0.09141169
773.941	0.09134373
774.126	0.09136314
774.311	0.09133116
774.496	0.09135917
774.681	0.0913023
774.866	0.09121024
775.051	0.09117841
775.236	0.09123057
775.421	0.09109249
775.606	0.09101651
775.791	0.09090715
775.976	0.09087726
776.16	0.09083781
776.345	0.090789
776.53	0.09066738
776.715	0.09068537
776.899	0.09064903
777.084	0.09061417
777.269	0.09055034
777.454	0.09047846
777.638	0.09040689
777.823	0.09038974
778.008	0.09029618
778.192	0.09024201
778.377	0.09020995
778.561	0.09024296
778.746	0.09022862
778.931	0.09019958
779.115	0.09015643
779.3	0.09018968
779.484	0.09016274
779.669	0.09011169
779.853	0.08997324
780.037	0.08993373
780.222	0.08992353
780.406	0.08986453
780.591	0.0897483
780.775	0.08969641
780.959	0.0896099
781.144	0.08958128
781.328	0.08955067
781.512	0.08946961
781.697	0.08933314
781.881	0.08925521
782.065	0.08925758
782.249	0.08925457
782.434	0.08923559
782.618	0.08918853
782.802	0.08913448
782.986	0.08917219
783.17	0.08909003
783.354	0.0889903
783.539	0.0888843
783.723	0.08872955
783.907	0.08869214
784.091	0.08864576
784.275	0.08852138
784.459	0.08854661
784.643	0.08854131
784.827	0.08852331
785.011	0.08849807
785.195	0.08844894
785.379	0.08834287
785.563	0.08828679
785.747	0.08817623
785.93	0.08805337
786.114	0.08793978
786.298	0.08788254
786.482	0.08770991
786.666	0.08770192
786.85	0.0876296
787.033	0.08757843
787.217	0.08753867
787.401	0.08752578
787.585	0.08746337
787.768	0.08743835
787.952	0.08730356
788.136	0.087195
788.319	0.08709581
788.503	0.0869664
788.687	0.08686055
788.87	0.08679213
789.054	0.08671688
789.237	0.08672458
789.421	0.08675223
789.605	0.08671034
789.788	0.08661395
789.972	0.08654301
790.155	0.08644964
790.338	0.08636865
790.522	0.08626994
790.705	0.08615134
790.889	0.08599686
791.072	0.08598883
791.256	0.08592684
791.439	0.0858704
791.622	0.08579269
791.806	0.08569882
791.989	0.08562539
792.172	0.08561251
792.355	0.08549406
792.539	0.08539937
792.722	0.08529734
792.905	0.08520664
793.088	0.08512578
793.271	0.08505826
793.455	0.08495746
793.638	0.08486985
793.821	0.08486053
794.004	0.08478944
794.187	0.08476755
794.37	0.0847122
794.553	0.08464689
794.736	0.08464012
794.919	0.08456369
795.102	0.08444832
795.285	0.08438461
795.468	0.08426018
795.651	0.08412173
795.834	0.08399785
796.017	0.08389827
796.2	0.08376722
796.383	0.08366051
796.566	0.08354873
796.749	0.08345667
796.931	0.08339178
797.114	0.08329666
797.297	0.08318365
797.48	0.08317075
797.663	0.08307549
797.845	0.0829921
798.028	0.08295058
798.211	0.08290383
798.393	0.08288832
798.576	0.08282208
798.759	0.08273193
798.941	0.08264187
799.124	0.08254261
799.307	0.08247866
799.489	0.08233571
799.672	0.08222302
799.854	0.08212095
800.037	0.08200756
800.219	0.08191216
800.402	0.08189681
800.584	0.08179881
800.767	0.08175072
800.949	0.08165886
801.132	0.08154293
801.314	0.0814645
801.496	0.08136592
801.679	0.08124331
801.861	0.08108133
802.043	0.08100434
802.226	0.08094272
802.408	0.0808236
802.59	0.08082046
802.772	0.08070816
802.955	0.08062551
803.137	0.08055588
803.319	0.0804403
803.501	0.08026618
803.684	0.08014738
803.866	0.07990738
804.048	0.07984683
804.23	0.07972663
804.412	0.07964773
804.594	0.07955157
804.776	0.07950751
804.958	0.07944854
805.14	0.07941979
805.322	0.07934442
805.504	0.07926468
805.686	0.07914192
805.868	0.07899922
806.05	0.07889206
806.232	0.07878815
806.414	0.07866583
806.596	0.07849044
806.778	0.078307
806.96	0.07824722
807.141	0.07816234
807.323	0.07806136
807.505	0.07799756
807.687	0.07786726
807.869	0.07786187
808.05	0.07785872
808.232	0.07767387
808.414	0.0775699
808.595	0.07744174
808.777	0.07729157
808.959	0.07717275
809.14	0.07703418
809.322	0.07684023
809.504	0.076774
809.685	0.07670154
809.867	0.07664863
810.048	0.07655182
810.23	0.07648708
810.411	0.07633662
810.593	0.07627586
810.774	0.0761378
810.956	0.07599365
811.137	0.07584955
811.319	0.07575843
811.5	0.07564599
811.681	0.07556546
811.863	0.07542373
812.044	0.07543219
812.225	0.07534281
812.407	0.07524207
812.588	0.0751439
812.769	0.0750579
812.951	0.07497426
813.132	0.07488356
813.313	0.07466801
813.494	0.07442332
813.675	0.07428089
813.857	0.07414008
814.038	0.07395043
814.219	0.07379562
814.4	0.07373073
814.581	0.07365495
814.762	0.07368752
814.943	0.073559
815.124	0.07342404
815.305	0.07334294
815.486	0.07322751
815.667	0.07303926
815.848	0.07293612
816.029	0.07276921
816.21	0.07265002
816.391	0.07259762
816.572	0.0725961
816.753	0.07256067
816.934	0.07247818
817.115	0.07231076
817.295	0.07228259
817.476	0.07214914
817.657	0.07198118
817.838	0.07177241
818.019	0.07158597
818.199	0.07140493
818.38	0.07127154
818.561	0.07104728
818.741	0.07096226
818.922	0.07089266
819.103	0.07079239
819.283	0.0706908
819.464	0.07054787
819.645	0.07046529
819.825	0.07043096
820.006	0.07035341
820.186	0.07019324
820.367	0.07008784
820.547	0.06996217
820.728	0.06989866
820.908	0.06979497
821.089	0.06970971
821.269	0.06960137
821.45	0.06957079
821.63	0.06946403
821.81	0.06939149
821.991	0.06935639
822.171	0.06919964
822.351	0.0690113
822.532	0.06884309
822.712	0.06866366
822.892	0.06848617
823.072	0.06841125
823.253	0.06822808
823.433	0.06818017
823.613	0.06809611
823.793	0.06800194
823.973	0.06784799
824.154	0.06770966
824.334	0.06753151
824.514	0.06739702
824.694	0.06720352
824.874	0.0670079
825.054	0.06679875
825.234	0.06672088
825.414	0.06663149
825.594	0.06641916
825.774	0.06631679
825.954	0.06628355
826.134	0.06625727
826.314	0.06626487
826.494	0.06620648
826.674	0.06611453
826.854	0.06601528
827.033	0.06586125
827.213	0.06558755
827.393	0.06533496
827.573	0.06512389
827.753	0.06495476
827.932	0.06480808
828.112	0.06477551
828.292	0.06470861
828.472	0.06464435
828.651	0.06455553
828.831	0.06442939
829.011	0.06426369
829.19	0.06411011
829.37	0.06387957
829.549	0.06369858
829.729	0.06355109
829.909	0.06342902
830.088	0.06328034
830.268	0.06316002
830.447	0.0630678
830.627	0.06310456
830.806	0.06301717
830.986	0.06295765
831.165	0.0628931
831.344	0.0628461
831.524	0.06274831
831.703	0.06262456
831.883	0.06235119
832.062	0.06217053
832.241	0.06200185
832.421	0.06180257
832.6	0.06166002
832.779	0.06144774
832.958	0.06128293
833.138	0.06114243
833.317	0.06105065
833.496	0.06094793
833.675	0.06084792
833.854	0.060656
834.034	0.06061257
834.213	0.06050909
834.392	0.06041424
834.571	0.06026016
834.75	0.06009316
834.929	0.05992328
835.108	0.05984156
835.287	0.05967129
835.466	0.05949617
835.645	0.05934689
835.824	0.05914895
836.003	0.05905929
836.182	0.05895896
836.361	0.05876053
836.54	0.0586059
836.719	0.05848204
836.897	0.05833341
837.076	0.05832029
837.255	0.05813274
837.434	0.05796813
837.613	0.05785189
837.791	0.05771115
837.97	0.05763613
838.149	0.05753554
838.328	0.05739469
838.506	0.05734701
838.685	0.0572448
838.864	0.05718062
839.042	0.05703423
839.221	0.05695288
839.4	0.05680736
839.578	0.05668971
839.757	0.05650176
839.935	0.05633353
840.114	0.05615136
840.292	0.05606432
840.471	0.05591613
840.649	0.05590135
840.828	0.05570808
841.006	0.05561351
841.185	0.05551719
841.363	0.05545817
841.541	0.05533853
841.72	0.05526861
841.898	0.05513378
842.076	0.05508728
842.255	0.05491778
842.433	0.05483748
842.611	0.05469507
842.789	0.05454908
842.968	0.05429667
843.146	0.05412298
843.324	0.05396602
843.502	0.05386817
843.68	0.05379485
843.859	0.05370553
844.037	0.05360897
844.215	0.05353352
844.393	0.05339574
844.571	0.05325776
844.749	0.05316025
844.927	0.05301895
845.105	0.05289504
845.283	0.05282036
845.461	0.05272467
845.639	0.0526044
845.817	0.05251656
845.995	0.05243149
846.173	0.05225308
846.351	0.05209031
846.529	0.05199816
846.706	0.05182097
846.884	0.05165695
847.062	0.05152066
847.24	0.05132415
847.418	0.05111277
847.595	0.050988
847.773	0.05083728
847.951	0.05073794
848.129	0.05069579
848.306	0.05056435
848.484	0.05044888
848.662	0.05043017
848.839	0.05031324
849.017	0.05010468
849.194	0.05000891
849.372	0.04976441
849.549	0.04960293
849.727	0.04939181
849.905	0.04919196
850.082	0.04904576
850.26	0.04897536
850.437	0.04878673
850.614	0.0487043
850.792	0.04861761
850.969	0.04858725
851.147	0.04856754
851.324	0.04848499
851.501	0.04834683
851.679	0.04826319
851.856	0.0481149
852.033	0.04795724
852.211	0.04774288
852.388	0.04756608
852.565	0.04745286
852.742	0.04729454
852.92	0.04712017
853.097	0.04703488
853.274	0.04692596
853.451	0.04688288
853.628	0.04678782
853.805	0.04667321
853.982	0.04662935
854.159	0.04655787
854.336	0.04648574
854.514	0.04636475
854.691	0.0462186
854.868	0.04607998
855.045	0.04583263
855.221	0.04562093
855.398	0.04544378
855.575	0.04513354
855.752	0.04506574
855.929	0.04494392
856.106	0.04479152
856.283	0.04469861
856.46	0.04459258
856.637	0.04451001
856.813	0.04441713
856.99	0.04421349
857.167	0.04405204
857.344	0.04390264
857.52	0.04373882
857.697	0.04351806
857.874	0.04330838
858.05	0.04326398
858.227	0.04309385
858.404	0.04300395
858.58	0.04291392
858.757	0.04291747
858.933	0.04295749
859.11	0.04288604
859.287	0.04277631
859.463	0.04277735
859.64	0.04269654
859.816	0.04253363
859.993	0.04237024
860.169	0.04212699
860.345	0.04199589
860.522	0.0418378
860.698	0.04162623
860.875	0.04146235
861.051	0.0413897
861.227	0.0411668
861.404	0.04109574
861.58	0.04100544
861.756	0.04085197
861.932	0.04066092
862.109	0.04049666
862.285	0.04038204
862.461	0.04032368
862.637	0.04020668
862.813	0.04006728
862.99	0.04003656
863.166	0.03999501
863.342	0.03995382
863.518	0.03989887
863.694	0.03983551
863.87	0.03974839
864.046	0.03965547
864.222	0.03961724
864.398	0.03960793
864.574	0.03952244
864.75	0.03932603
864.926	0.03913843
865.102	0.03904905
865.278	0.03890959
865.454	0.03867444
865.63	0.03846077
865.805	0.03828421
865.981	0.03830562
866.157	0.03828594
866.333	0.03816994
866.509	0.03820927
866.684	0.03821795
866.86	0.03814491
867.036	0.03805605
867.212	0.03783004
867.387	0.03767327
867.563	0.03755365
867.739	0.03727517
867.914	0.03707687
868.09	0.03693451
868.265	0.03681614
868.441	0.03664866
868.617	0.03659962
868.792	0.03648756
868.968	0.036514
869.143	0.03646751
869.319	0.03641527
869.494	0.03642463
869.67	0.03640531
869.845	0.03631653
870.02	0.03616108
870.196	0.03598829
870.371	0.03578052
870.546	0.0355856
870.722	0.03539859
870.897	0.03521272
871.072	0.0350505
871.248	0.03494848
871.423	0.03481639
871.598	0.03474712
871.773	0.03471438
871.949	0.0345593
872.124	0.03460013
872.299	0.03454133
872.474	0.03442091
872.649	0.03425795
872.824	0.03407893
872.999	0.03390231
873.174	0.03379736
873.349	0.03348799
873.524	0.03323333
873.699	0.03312783
873.874	0.03300101
874.049	0.03299493
874.224	0.03297449
874.399	0.03294387
874.574	0.03291222
874.749	0.03292951
874.924	0.03288384
875.099	0.03280466
875.274	0.03266666
875.449	0.03249234
875.623	0.03225659
875.798	0.03203834
875.973	0.03186406
876.148	0.03165817
876.322	0.03150299
876.497	0.03142026
876.672	0.03140556
876.846	0.0313569
877.021	0.03139189
877.196	0.03134898
877.37	0.03144971
877.545	0.03137843
877.72	0.03131959
877.894	0.03123206
878.069	0.03127491
878.243	0.03119685
878.418	0.03106061
878.592	0.03086539
878.767	0.03081747
878.941	0.03065213
879.116	0.03044237
879.29	0.03021013
879.464	0.03008707
879.639	0.03007667
879.813	0.02998932
879.987	0.02994822
880.162	0.02989476
880.336	0.02993251
880.51	0.02988059
880.685	0.02978152
880.859	0.02957945
881.033	0.02940908
881.207	0.02919268
881.381	0.02904085
881.556	0.02876526
881.73	0.02864915
881.904	0.02860702
882.078	0.02855047
882.252	0.02843628
882.426	0.02847001
882.6	0.02847005
882.774	0.02851903
882.948	0.02840476
883.122	0.02834455
883.296	0.02823228
883.47	0.02825455
883.644	0.02815305
883.818	0.02785919
883.992	0.02771749
884.166	0.0275772
884.34	0.02737375
884.514	0.02725142
884.687	0.02709851
884.861	0.02707294
885.035	0.02722064
885.209	0.02709512
885.382	0.02716297
885.556	0.0271912
885.73	0.02710402
885.904	0.02705581
886.077	0.02682215
886.251	0.02658552
886.425	0.02636107
886.598	0.02611924
886.772	0.02588263
886.945	0.02584292
887.119	0.02564567
887.292	0.02551695
887.466	0.02544568
887.64	0.02547314
887.813	0.02542966
887.986	0.02549197
888.16	0.02542065
888.333	0.02540311
888.507	0.02543989
888.68	0.02546123
888.854	0.02547678
889.027	0.0253386
889.2	0.0251128
889.374	0.02497516
889.547	0.02488799
889.72	0.0247374
889.893	0.02453145
890.067	0.02440314
890.24	0.02443626
890.413	0.02444138
890.586	0.02439638
890.759	0.02434792
890.933	0.02425725
891.106	0.02421017
891.279	0.02414683
891.452	0.02393828
891.625	0.0238364
891.798	0.02377226
891.971	0.02357013
892.144	0.02340048
892.317	0.02324267
892.49	0.02303102
892.663	0.02292666
892.836	0.02283418
893.009	0.02268905
893.182	0.02264779
893.355	0.02272941
893.527	0.0227078
893.7	0.02288995
893.873	0.02289829
894.046	0.02290552
894.219	0.02286136
894.391	0.02279886
894.564	0.02258933
894.737	0.02236314
894.91	0.0220533
895.082	0.02186586
895.255	0.02165323
895.428	0.02146114
895.6	0.02145613
895.773	0.02136873
895.945	0.02141404
896.118	0.02139815
896.291	0.02148111
896.463	0.02141724
896.636	0.02141999
896.808	0.02140278
896.981	0.02148436
897.153	0.02144744
897.326	0.0213115
897.498	0.02114883
897.67	0.02098039
897.843	0.02085466
898.015	0.02060861
898.187	0.02041661
898.36	0.02033181
898.532	0.02032576
898.704	0.02020208
898.877	0.02021834
899.049	0.02017847
899.221	0.02022052
899.393	0.02016782
899.566	0.02011043
899.738	0.01996886
899.91	0.01994692
900.082	0.01989954
900.254	0.01979821
900.426	0.019612
900.598	0.01951677
900.77	0.01932058
900.942	0.01920438
901.114	0.01910856
901.286	0.01891641
901.458	0.01889302
901.63	0.01889076
901.802	0.01885691
901.974	0.01886568
902.146	0.01901767
902.318	0.01907976
902.49	0.01921977
902.662	0.01920716
902.834	0.01907482
903.005	0.01903464
903.177	0.0190539
903.349	0.0187837
903.521	0.01862002
903.693	0.01840568
903.864	0.01821763
904.036	0.01815501
904.208	0.01805271
904.379	0.01796745
904.551	0.01797904
904.723	0.01800442
904.894	0.01799443
905.066	0.01803088
905.237	0.018105
905.409	0.01812094
905.58	0.01809241
905.752	0.01807108
905.923	0.0180276
906.095	0.01799825
906.266	0.01792589
906.438	0.01785164
906.609	0.01769187
906.78	0.01756385
906.952	0.01740397
907.123	0.01728832
907.295	0.01715047
907.466	0.01705323
907.637	0.01685551
907.808	0.01678621
907.98	0.01674672
908.151	0.01680547
908.322	0.01676758
908.493	0.01671345
908.665	0.01671576
908.836	0.01674355
909.007	0.01673055
909.178	0.01667637
909.349	0.01657365
909.52	0.01634452
909.691	0.0162209
909.862	0.01602691
910.033	0.01596852
910.204	0.01592211
910.375	0.01586268
910.546	0.01590018
910.717	0.01598518
910.888	0.01610441
911.059	0.01610019
911.23	0.01607487
911.401	0.01607162
911.572	0.01599988
911.742	0.01584152
911.913	0.01571029
912.084	0.0155851
912.255	0.01550076
912.426	0.0152492
912.596	0.015108
912.767	0.01501479
912.938	0.01492768
913.108	0.01487384
913.279	0.0147808
913.45	0.01478433
913.62	0.01478479
913.791	0.01470198
913.962	0.01460941
914.132	0.01458247
914.303	0.01459736
914.473	0.01461668
914.644	0.01454465
914.814	0.01450671
914.985	0.01448283
915.155	0.0144533
915.326	0.0142954
915.496	0.01413997
915.666	0.01390661
915.837	0.0137917
916.007	0.01371958
916.177	0.0135533
916.348	0.01339389
916.518	0.01337143
916.688	0.01326328
916.858	0.01331822
917.029	0.01345054
917.199	0.01352133
917.369	0.01361346
917.539	0.0137833
917.709	0.0137245
917.88	0.01361064
918.05	0.01354243
918.22	0.01330394
918.39	0.0132281
918.56	0.01314937
918.73	0.01295772
918.9	0.01280106
919.07	0.01283952
919.24	0.01283838
919.41	0.01291384
919.58	0.01281598
919.75	0.01273841
919.92	0.01270516
920.09	0.01270027
920.26	0.01276135
920.429	0.012799
920.599	0.01280048
920.769	0.01270829
920.939	0.01254822
921.109	0.01250054
921.278	0.01252409
921.448	0.01238257
921.618	0.0120512
921.787	0.0117947
921.957	0.01176703
922.127	0.01185727
922.296	0.01186534
922.466	0.01186733
922.636	0.01196137
922.805	0.01212861
922.975	0.01222102
923.144	0.01225216
923.314	0.01217699
923.483	0.012143
923.653	0.01215392
923.822	0.01201085
923.992	0.01193921
924.161	0.01181383
924.331	0.01167823
924.5	0.01165009
924.669	0.01141607
924.839	0.01126214
925.008	0.01120956
925.177	0.0110732
925.347	0.01098169
925.516	0.01095547
925.685	0.01089538
925.854	0.01105064
926.023	0.01101685
926.193	0.01099146
926.362	0.01100517
926.531	0.01093691
926.7	0.01088799
926.869	0.0107526
927.038	0.01064103
927.207	0.01056771
927.376	0.0104592
927.545	0.01032059
927.715	0.01040881
927.884	0.01023579
928.052	0.01028291
928.221	0.01026325
928.39	0.01031789
928.559	0.01032522
928.728	0.01017664
928.897	0.01006129
929.066	0.01018705
929.235	0.01015995
929.404	0.01013315
929.572	0.00999686
929.741	0.0099131
929.91	0.01005725
930.079	0.01012926
930.247	0.0099905
930.416	0.00997689
930.585	0.00985762
930.753	0.00981847
930.922	0.0100743
931.091	0.01013931
931.259	0.01006141
931.428	0.01016823
931.596	0.01012777
931.765	0.01010972
931.934	0.00997301
932.102	0.00977649
932.27	0.00953205
932.439	0.00948401
932.607	0.00943638
932.776	0.0092396
932.944	0.00921928
933.113	0.00936093
933.281	0.00924457
933.449	0.00917471
933.618	0.00890983
933.786	0.0088309
933.954	0.00872676
934.123	0.00868785
934.291	0.00861387
934.459	0.00867859
934.627	0.00885232
934.795	0.0092413
934.964	0.00930144
935.132	0.00951225
935.3	0.00955966
935.468	0.00966081
935.636	0.00964982
935.804	0.0097512
935.972	0.0094246
936.14	0.00937481
936.308	0.00937253
936.476	0.00927985
936.644	0.00929836
936.812	0.00922861
936.98	0.00912597
937.148	0.00925861
937.316	0.00929966
937.484	0.00917062
937.652	0.00936336
937.82	0.00936851
937.987	0.00940009
938.155	0.00933625
938.323	0.0095824
938.491	0.00955203
938.658	0.00971935
938.826	0.00947029
938.994	0.00969932
939.162	0.00966247
939.329	0.00951967
939.497	0.00963049
939.665	0.00976525
939.832	0.00924429
940	0.00917377
940.167	0.00901076
940.335	0.00889342
940.502	0.00923621
940.67	0.0090737
940.837	0.00865421
941.005	0.00959118
941.172	0.01023991
941.34	0.01011013
941.507	0.01010173
941.674	0.01013778
941.842	0.00944883
942.009	0.01021638
942.177	0.01040032
942.344	0.01031073
942.511	0.01036216
942.678	0.01003722
942.846	0.01081507
943.013	0.01117397
943.18	0.01114824
943.347	0.01086798
943.514	0.0115
943.682	0.01129742
943.849	0.01204243
944.016	0.01082048
944.183	0.01131829
944.35	0.01138665
944.517	0.01072509
944.684	0.00960024
944.851	0.00963943
945.018	0.00910052
945.185	0.00996007
945.352	0.00994706
945.519	0.00966973
945.686	0.01042093
945.853	0.0103284
946.02	0.00977199
946.187	0.00979673
946.353	0.00904869
946.52	0.00867713
946.687	0.0079088
946.854	0.00796741
947.021	0.00857637
947.187	0.0094134
947.354	0.00965225
947.521	0.00973815
947.687	0.00944869
947.854	0.00989567
948.021	0.00920765
948.187	0.00972751
948.354	0.00923621
948.52	0.00904181
948.687	0.00920127
948.854	0.0099506
949.02	0.00977978
949.187	0.010563
949.353	0.01019589
949.52	0.01033916
949.686	0.01041252
949.852	0.01023513
950.019	0.00984499
950.185	0.00980814
950.352	0.00941598
950.518	0.0087459
950.684	0.00863088
950.851	0.00833307
951.017	0.00857458
951.183	0.00849551
951.349	0.00785041
951.516	0.0075779
951.682	0.00770455
951.848	0.00735348
952.014	0.0072689
952.18	0.00710687
952.346	0.00715359
952.512	0.00761258
952.679	0.00771598
952.845	0.0073628
953.011	0.007441
953.177	0.00791362
953.343	0.00793664
953.509	0.00734941
953.675	0.00775743
953.841	0.00774931
954.007	0.0080465
954.172	0.00805855
954.338	0.00778122
954.504	0.00723585
954.67	0.00736841
954.836	0.00659478
955.002	0.00649769
955.167	0.00650238
955.333	0.00605342
955.499	0.00600166
955.665	0.00624797
955.83	0.00633675
955.996	0.00683169
956.162	0.0064326
956.327	0.00618802
956.493	0.00661919
956.659	0.00631567
956.824	0.0060098
956.99	0.00534786
957.155	0.00497022
957.321	0.00494053
957.486	0.0049824
957.652	0.00464331
957.817	0.004217
957.983	0.00447773
958.148	0.00506927
958.314	0.00503493
958.479	0.00495983
958.644	0.00446328
958.81	0.00458934
958.975	0.00498272
959.14	0.00453229
959.306	0.00441264
959.471	0.00419707
959.636	0.00445356
959.801	0.00498898
959.967	0.00481307
960.132	0.00516362
960.297	0.00554386
960.462	0.00552432
960.627	0.00569559
960.792	0.00559322
960.957	0.00537733
961.123	0.00535107
961.288	0.00509756
961.453	0.00506284
961.618	0.00488167
961.783	0.0047262
961.948	0.00458937
962.113	0.00407483
962.277	0.00448462
962.442	0.00449716
962.607	0.00397917
962.772	0.00431289
962.937	0.00475246
963.102	0.00510482
963.267	0.0056003
963.431	0.00505781
963.596	0.00457863
963.761	0.0047947
963.926	0.0044192
964.09	0.00386988
964.255	0.0034928
964.42	0.00336871
964.584	0.00350748
964.749	0.00421114
964.914	0.00414673
965.078	0.00450059
965.243	0.0047061
965.407	0.00446207
965.572	0.00432638
965.736	0.00433154
965.901	0.00365076
966.065	0.00401003
966.23	0.00375638
966.394	0.00359361
966.559	0.00373187
966.723	0.00391109
966.887	0.00365646
967.052	0.0042695
967.216	0.00428793
967.38	0.00408935
967.545	0.0040861
967.709	0.0042705
967.873	0.0043173
968.037	0.00474712
968.202	0.00442811
968.366	0.00432792
968.53	0.00452053
968.694	0.0045889
968.858	0.00479087
969.022	0.00488078
969.187	0.00437212
969.351	0.00460769
969.515	0.004392
969.679	0.00433323
969.843	0.00448491
970.007	0.00430212
970.171	0.00387536
970.335	0.00384004
970.499	0.00358561
970.662	0.00356254
970.826	0.00365415
970.99	0.00347639
971.154	0.00363033
971.318	0.00380389
971.482	0.00428758
971.645	0.00434991
971.809	0.00455769
971.973	0.00424093
972.137	0.00427787
972.3	0.00390422
972.464	0.00387106
972.628	0.00378102
972.791	0.00392068
972.955	0.00353595
973.119	0.00381243
973.282	0.00376672
973.446	0.00381459
973.609	0.00401898
973.773	0.00399812
973.936	0.00362728
974.1	0.00376242
974.263	0.00351319
974.427	0.00332092
974.59	0.00345943
974.754	0.00337116
974.917	0.00359535
975.08	0.00363326
975.244	0.00389338
975.407	0.00410058
975.57	0.00424539
975.734	0.00418821
975.897	0.00409537
976.06	0.00389995
976.223	0.00403076
976.387	0.00390705
976.55	0.00356447
976.713	0.00397495
976.876	0.00391393
977.039	0.0036756
977.202	0.0037608
977.365	0.00374717
977.528	0.00357244
977.692	0.00400535
977.855	0.0037147
978.018	0.00366079
978.181	0.00403648
978.344	0.00327377
978.506	0.00377245
978.669	0.00398648
978.832	0.00397911
978.995	0.00355686
979.158	0.00347265
979.321	0.0031852
979.484	0.00357235
979.646	0.0029278
979.809	0.00242011
979.972	0.00247235
980.135	0.00296474
980.297	0.00284087
980.46	0.00289146
980.623	0.00293445
980.786	0.0026867
980.948	0.00278436
981.111	0.00269246
981.273	0.00279508
981.436	0.00297878
981.599	0.00288478
981.761	0.00319579
981.924	0.00355322
982.086	0.00385276
982.249	0.0039101
982.411	0.00352386
982.573	0.00322958
982.736	0.00293093
982.898	0.00299684
983.061	0.00280633
983.223	0.00240645
983.385	0.00220994
983.548	0.00235227
983.71	0.00280218
983.872	0.00358444
984.034	0.00352265
984.197	0.00332818
984.359	0.00365448
984.521	0.00364218
984.683	0.00396192
984.845	0.00387584
985.008	0.00327777
985.17	0.00282969
985.332	0.00296716
985.494	0.00359455
985.656	0.0039192
985.818	0.00329538
985.98	0.00294099
986.142	0.0027166
986.304	0.00270139
986.466	0.00299454
986.628	0.0021744
986.79	0.00162567
986.952	0.00237229
987.113	0.00247823
987.275	0.00243364
987.437	0.00220012
987.599	0.00150966
987.761	0.0015909
987.922	0.00245474
988.084	0.00248555
988.246	0.00280644
988.408	0.00342163
988.569	0.00383303
988.731	0.00496492
988.893	0.00501493
989.054	0.00425417
989.216	0.00366261
989.377	0.00377234
989.539	0.00367552
989.701	0.00379331
989.862	0.00252739
990.024	0.00246446
990.185	0.00205786
990.347	0.00203984
990.508	0.00159846
990.669	0.00189285
990.831	0.00200237
990.992	0.0029568
991.154	0.00287573
991.315	0.0033922
991.476	0.0031858
991.638	0.00326925
991.799	0.00359393
991.96	0.00296993
992.121	0.00280924
992.283	0.00291925
992.444	0.00279673
992.605	0.00306468
992.766	0.00324904
992.927	0.00251167
993.088	0.00283089
993.249	0.00247551
993.41	0.00243203
993.572	0.0022527
993.733	0.00263076
993.894	0.00240641
994.055	0.00258365
994.216	0.00220318
994.376	0.00251616
994.537	0.0025946
994.698	0.00339285
994.859	0.00340765
995.02	0.00383853
995.181	0.00351374
995.342	0.00412165
995.503	0.00462211
995.663	0.00467687
995.824	0.0045466
995.985	0.00403337
996.146	0.00401681
996.306	0.00427626
996.467	0.00446984
996.628	0.00416309
996.788	0.00440567
996.949	0.00424455
997.11	0.0043891
997.27	0.00416194
997.431	0.00448373
997.591	0.00391632
997.752	0.00416282
997.912	0.00417855
998.073	0.00369589
998.233	0.00339022
998.394	0.00280813
998.554	0.00205067
998.714	0.0034206
998.875	0.0033105
999.035	0.00269463
999.196	0.00246201
999.356	0.00302997
999.516	0.00417961
999.676	0.0051278
999.837	0.00287578
999.997	0.00282923
1000.157	0.0030505
1000.317	0.00405919
1000.477	0.00318285
1000.638	0.00279852
1000.798	0.00246775
1000.958	0.00375767
1001.118	0.00293456
1001.278	0.0029796
1001.438	0.00169131
1001.598	0.00185817
1001.758	0.00195586
1001.918	0.0012932
1002.078	0.00041423
1002.238	0.00049907
1002.398	0.0015835
1002.558	0.00302118
1002.718	0.0037748
1002.878	0.0042897
1003.037	0.00426697
1003.197	0.00451953
1003.357	0.00448097
1003.517	0.00355474
1003.677	0.00225007
1003.836	0.00174281
1003.996	0.00108676
1004.156	0.00153276
1004.315	0.00311703
1004.475	0.00289267
1004.635	0.00211233
1004.794	0.00237814
1004.954	0.00132155
1005.114	-0.00001358
1005.273	0.00004855
1005.433	-0.00189764
1005.592	-0.00195024
1005.752	-0.00030072
1005.911	0.00044757
1006.071	0.00206878
1006.23	0.00342091
1006.389	0.00385947
1006.549	0.00414529
1006.708	0.00616552
1006.868	0.00449405
1007.027	0.00521502
1007.186	0.0046222
1007.345	0.00434148
1007.505	0.0042178
1007.664	0.00407819
1007.823	0.00283482
1007.982	0.00410375
1008.142	0.00434633
1008.301	0.00479127
1008.46	0.00451054
1008.619	0.00455251
1008.778	0.00448789
1008.937	0.00482828
1009.096	0.00493431
1009.255	0.00477753
1009.414	0.00507041
1009.573	0.0068622
1009.732	0.00779436
1009.891	0.00883617
1010.05	0.00734103
1010.209	0.00646673
1010.368	0.00484485
1010.527	0.00408544
1010.686	0.00263275
1010.845	0.00130948
1011.003	0.0020644
1011.162	0.0029918
1011.321	0.00306796
1011.48	0.00318161
1011.638	0.00464522
1011.797	0.00523282
1011.956	0.00562311
1012.115	0.00439198
1012.273	0.00424084
1012.432	0.00532396
1012.59	0.00646359
1012.749	0.00344374
1012.908	0.00366052
1013.066	0.00335275
1013.225	0.00451358
1013.383	0.00571177
1013.542	0.00467177
1013.7	0.00396005
1013.859	0.00734141
1014.017	0.00754049
1014.175	0.0085486
1014.334	0.00746813
1014.492	0.00762467
1014.65	0.00786703
1014.809	0.00847146
1014.967	0.00628897
1015.125	0.00553325
1015.284	0.00439158
1015.442	0.00595989
1015.6	0.00531375
1015.758	0.00729633
1015.916	0.00702022
1016.075	0.00817367
1016.233	0.00938341
1016.391	0.01044382
1016.549	0.00936747
1016.707	0.0090183
1016.865	0.00683306
1017.023	0.00791046
1017.181	0.00797426
1017.339	0.00762787
1017.497	0.00768714
1017.655	0.00902104
1017.813	0.00816334
1017.971	0.00723513
1018.129	0.0036255
1018.286	0.00418434
1018.444	0.00118777
1018.602	0.00102496
1018.76	-0.00061218
1018.918	-0.00048949
1019.075	0.00257733
1019.233	0.00650699
1019.391	0.00454101
1019.549	0.00595556
1019.706	0.00470279
1019.864	0.00555448
1020.022	0.00748402
1020.179	0.00484362
1020.337	-0.00019416
1020.494	0.00018619
1020.652	0.000489
1020.809	0.00110148
1020.967	0.00138705
1021.124	0.00118868
1021.282	0.0041957
1021.439	0.00773293
1021.597	0.00926885
1021.754	0.00842718
1021.911	0.01037238
1022.069	0.00987588
1022.226	0.00797476
1022.384	0.00518843
1022.541	0.00615864
1022.698	0.00555821
1022.855	0.00811084
1023.013	0.00663534
1023.17	0.00732808
1023.327	0.00989132
1023.484	0.01141404
1023.641	0.01054507
1023.798	0.01335627
1023.956	0.0108845
1024.113	0.01110926
1024.27	0.00961356
1024.427	0.0112839
1024.584	0.00975214
1024.741	0.00780164
1024.898	0.0050025
1025.055	0.00765812
1025.212	0.00715395
1025.369	0.00864183
1025.525	0.00439926
1025.682	0.00540525
1025.839	0.00814493
1025.996	0.00560499
1026.153	0.00631768
1026.31	0.00414156
1026.466	0.0030351
1026.623	0.0051742
1026.78	0.00358921
1026.937	0.0013379
1027.093	0.00850095
1027.25	0.00670775
1027.407	0.0109617
1027.563	0.01381309
1027.72	0.02046673
1027.876	0.02212402
1028.033	0.02741486
1028.19	0.02386975
1028.346	0.01979756
1028.503	0.02035186
1028.659	0.01840753
1028.816	0.01466648
1028.972	0.01263204
1029.128	0.00861384
1029.285	0.01201226
1029.441	0.0233089
1029.598	0.01742083
1029.754	0.02027596
1029.91	0.01583531
1030.067	0.02145995
1030.223	0.02163028
1030.379	0.01896132
1030.535	0.01517265
1030.691	0.01877877
1030.848	0.02035116
1031.004	0.02267481
1031.16	0.01639498
1031.316	0.01233068
1031.472	0.01175065
1031.628	0.00887692
1031.784	0.00879922
1031.94	0.00446029
1032.096	0.00447436
1032.252	0.00684345
1032.408	0.01113675
1032.564	0.01369102
1032.72	0.01664612
1032.876	0.02152796
1033.032	0.02143426
1033.188	0.01831204
1033.344	0.01317212
1033.5	0.00745134
1033.655	0.00509277
1033.811	-0.00140047
1033.967	-0.01264169
