Data from 0_1_mm_pl_40pc_Absorbance__0__18-52-05-802.txt Node

Date: Wed Mar 01 18:52:05 CET 2023
User: Ange
Spectrometer: FLMT08341
Trigger mode: 0
Integration Time (sec): 1.000000E-2
Scans to average: 400
Electric dark correction enabled: true
Nonlinearity correction enabled: false
Boxcar width: 3
XAxis mode: Wavelengths
Number of Pixels in Spectrum: 3648
>>>>>Begin Spectral Data<<<<<
345.271	-0.02937303
345.487	-0.03341007
345.704	-0.04335211
345.921	-0.04295972
346.137	-0.05708343
346.354	-0.06199597
346.571	-0.06582804
346.787	-0.29847319
347.004	0.15385048
347.22	0.09303341
347.437	0.15824748
347.653	-0.06698259
347.87	0.17814092
348.086	0.62612926
348.303	-0
348.519	0.05189942
348.736	0.03341886
348.952	0.03035242
349.169	0.0312607
349.385	0.03088167
349.601	0.02868541
349.818	0.02809891
350.034	0.02944319
350.251	0.03022383
350.467	0.03143745
350.683	0.02965644
350.9	0.02943846
351.116	0.0295208
351.332	0.02898711
351.549	0.02825955
351.765	0.02907401
351.981	0.02952981
352.197	0.02959514
352.414	0.02973747
352.63	0.03080029
352.846	0.03331905
353.062	0.03325016
353.278	0.03324771
353.495	0.03324393
353.711	0.03404883
353.927	0.0341107
354.143	0.0339902
354.359	0.03244631
354.575	0.03344889
354.792	0.03429987
355.008	0.03455191
355.224	0.0344922
355.44	0.0351209
355.656	0.03529827
355.872	0.03559518
356.088	0.03528884
356.304	0.03594986
356.52	0.03543851
356.736	0.03635416
356.952	0.03820487
357.168	0.03733906
357.384	0.03831341
357.6	0.03832676
357.816	0.03857486
358.032	0.03862333
358.248	0.03979915
358.464	0.03853252
358.679	0.03922563
358.895	0.03903503
359.111	0.04038808
359.327	0.03939211
359.543	0.04065458
359.759	0.03864048
359.974	0.03917121
360.19	0.03857381
360.406	0.03802017
360.622	0.03876605
360.838	0.0387048
361.053	0.03772876
361.269	0.03856383
361.485	0.03978583
361.701	0.0410092
361.916	0.0428388
362.132	0.04194597
362.348	0.04172671
362.563	0.04282307
362.779	0.04248749
362.995	0.04116986
363.21	0.04134233
363.426	0.03932194
363.641	0.03943083
363.857	0.04012324
364.073	0.04094673
364.288	0.04079089
364.504	0.04196838
364.719	0.04193114
364.935	0.04296993
365.15	0.04322517
365.366	0.04277941
365.581	0.04144589
365.797	0.0425534
366.012	0.04132083
366.228	0.04159671
366.443	0.04268268
366.658	0.0425496
366.874	0.04241731
367.089	0.04353774
367.305	0.0443418
367.52	0.04437354
367.735	0.04474419
367.951	0.04307963
368.166	0.04342513
368.381	0.04495836
368.597	0.04549951
368.812	0.04611993
369.027	0.04591369
369.243	0.04571345
369.458	0.04696167
369.673	0.04766999
369.888	0.04705912
370.104	0.04641535
370.319	0.04544754
370.534	0.04708253
370.749	0.0469231
370.964	0.04707817
371.179	0.04679597
371.395	0.04700934
371.61	0.04725715
371.825	0.04738197
372.04	0.04834167
372.255	0.04884649
372.47	0.0488435
372.685	0.04905151
372.9	0.04879561
373.115	0.04844129
373.33	0.04888324
373.545	0.04833747
373.76	0.04838428
373.975	0.04821798
374.19	0.04761601
374.405	0.04821851
374.62	0.04844031
374.835	0.04885407
375.05	0.04923225
375.265	0.04995952
375.48	0.05043571
375.695	0.0520114
375.91	0.0522663
376.125	0.05238301
376.339	0.05191535
376.554	0.05127117
376.769	0.05085189
376.984	0.051324
377.199	0.05019397
377.414	0.05044182
377.628	0.05143759
377.843	0.05171643
378.058	0.05168365
378.273	0.05217127
378.487	0.05156727
378.702	0.05238805
378.917	0.05184864
379.131	0.05152786
379.346	0.05099271
379.561	0.05200359
379.775	0.05191655
379.99	0.05222123
380.205	0.05268341
380.419	0.05394987
380.634	0.05360189
380.848	0.05435891
381.063	0.05411619
381.278	0.05507359
381.492	0.05526726
381.707	0.0551156
381.921	0.05441906
382.136	0.05535358
382.35	0.05576726
382.565	0.05561077
382.779	0.05529696
382.994	0.0552668
383.208	0.05535248
383.422	0.05552458
383.637	0.05513537
383.851	0.05568618
384.066	0.05583814
384.28	0.05561058
384.494	0.05637819
384.709	0.05651668
384.923	0.0575293
385.137	0.05773372
385.352	0.05727537
385.566	0.05784219
385.78	0.05823486
385.995	0.05795336
386.209	0.05837385
386.423	0.05824099
386.637	0.0583895
386.852	0.05801226
387.066	0.05818317
387.28	0.05765062
387.494	0.05803449
387.708	0.05777465
387.923	0.05771725
388.137	0.05776321
388.351	0.058166
388.565	0.05805424
388.779	0.05889767
388.993	0.05916519
389.207	0.0594455
389.421	0.05930826
389.635	0.05952678
389.85	0.05989924
390.064	0.06007021
390.278	0.05997588
390.492	0.06021388
390.706	0.06016392
390.92	0.06027442
391.134	0.06067097
391.348	0.06086433
391.561	0.06065881
391.775	0.06102483
391.989	0.06110001
392.203	0.06119492
392.417	0.06130389
392.631	0.06128064
392.845	0.06126319
393.059	0.06218512
393.273	0.06191181
393.486	0.06151779
393.7	0.06137235
393.914	0.06205394
394.128	0.06186831
394.342	0.06176932
394.555	0.06118397
394.769	0.06078142
394.983	0.06123204
395.197	0.0616454
395.41	0.06171445
395.624	0.06197531
395.838	0.06193787
396.051	0.06218959
396.265	0.06276257
396.479	0.06262159
396.692	0.06259382
396.906	0.06221757
397.12	0.06250117
397.333	0.06321195
397.547	0.06337808
397.76	0.06368749
397.974	0.06377112
398.187	0.06402048
398.401	0.06450886
398.614	0.06453009
398.828	0.06401665
399.041	0.06376187
399.255	0.06410093
399.468	0.06417801
399.682	0.06425488
399.895	0.0641248
400.109	0.06366573
400.322	0.06383546
400.536	0.06388492
400.749	0.06402147
400.962	0.06413515
401.176	0.06400007
401.389	0.06385128
401.602	0.0641643
401.816	0.06421647
402.029	0.06462482
402.242	0.06410672
402.456	0.06410004
402.669	0.06432366
402.882	0.06427749
403.095	0.06435818
403.309	0.06471555
403.522	0.06468329
403.735	0.06460831
403.948	0.06454351
404.161	0.06493294
404.375	0.06510254
404.588	0.06530092
404.801	0.06510493
405.014	0.06502397
405.227	0.06535603
405.44	0.065585
405.653	0.06537904
405.866	0.06565492
406.079	0.06550637
406.293	0.06543918
406.506	0.06554978
406.719	0.065413
406.932	0.06518556
407.145	0.06495711
407.358	0.06462583
407.571	0.06498624
407.784	0.06514883
407.996	0.06515478
408.209	0.06500215
408.422	0.06512465
408.635	0.06510757
408.848	0.065416
409.061	0.06482243
409.274	0.06448424
409.487	0.06418963
409.7	0.0643381
409.912	0.06436452
410.125	0.06449441
410.338	0.06423486
410.551	0.06460527
410.764	0.06488883
410.976	0.06486977
411.189	0.0646923
411.402	0.06450375
411.615	0.06449043
411.827	0.06422702
412.04	0.06405277
412.253	0.06409347
412.465	0.06421694
412.678	0.06424637
412.891	0.06426858
413.103	0.0640387
413.316	0.06415809
413.529	0.06419976
413.741	0.06420949
413.954	0.06406709
414.166	0.06418551
414.379	0.06412448
414.591	0.0639576
414.804	0.06379509
415.016	0.06365593
415.229	0.06314679
415.441	0.06301967
415.654	0.06269587
415.866	0.06236302
416.079	0.06253682
416.291	0.06242407
416.504	0.06225614
416.716	0.06255177
416.928	0.0623755
417.141	0.06235684
417.353	0.06227034
417.566	0.06183133
417.778	0.06180805
417.99	0.06163338
418.203	0.06113484
418.415	0.06116105
418.627	0.06118194
418.839	0.06126426
419.052	0.06139176
419.264	0.06141374
419.476	0.06128168
419.688	0.06100426
419.901	0.06096137
420.113	0.06070057
420.325	0.0605617
420.537	0.06020705
420.749	0.05980068
420.961	0.05955601
421.174	0.05970562
421.386	0.05920543
421.598	0.05892315
421.81	0.05896094
422.022	0.05880613
422.234	0.05881113
422.446	0.05880012
422.658	0.05852921
422.87	0.05865906
423.082	0.05851454
423.294	0.05823321
423.506	0.0581167
423.718	0.05788903
423.93	0.05755689
424.142	0.05735113
424.354	0.05693909
424.566	0.05670883
424.778	0.05647087
424.99	0.05626762
425.202	0.05618003
425.414	0.0560049
425.625	0.05586312
425.837	0.05554251
426.049	0.05534554
426.261	0.05504548
426.473	0.05512458
426.684	0.05469274
426.896	0.05465563
427.108	0.05459579
427.32	0.0547389
427.531	0.05460894
427.743	0.05447717
427.955	0.05409288
428.167	0.05384678
428.378	0.05351125
428.59	0.05305835
428.802	0.05278316
429.013	0.05263162
429.225	0.05239165
429.436	0.05220318
429.648	0.05215454
429.86	0.05211257
430.071	0.05202685
430.283	0.05195425
430.494	0.05155533
430.706	0.05130018
430.917	0.05120605
431.129	0.05098799
431.34	0.05077201
431.552	0.05068678
431.763	0.05038412
431.975	0.05013107
432.186	0.0499129
432.398	0.04967487
432.609	0.0493561
432.821	0.04892148
433.032	0.04858771
433.243	0.04836277
433.455	0.04837804
433.666	0.04832163
433.877	0.04811278
434.089	0.04784004
434.3	0.04788654
434.511	0.04770178
434.723	0.04741337
434.934	0.04730356
435.145	0.04706098
435.356	0.04675948
435.568	0.04670307
435.779	0.04652024
435.99	0.04631712
436.201	0.04621677
436.412	0.04585256
436.624	0.04584521
436.835	0.04570498
437.046	0.04552108
437.257	0.04502428
437.468	0.04481449
437.679	0.0446557
437.89	0.04446967
438.101	0.04392581
438.312	0.04364622
438.523	0.04335286
438.734	0.04341123
438.945	0.04313833
439.156	0.04267937
439.367	0.04249431
439.578	0.04238197
439.789	0.04205241
440	0.04177683
440.211	0.04132647
440.422	0.04096366
440.633	0.04077143
440.844	0.04051625
441.055	0.04014427
441.266	0.03983482
441.477	0.03966021
441.687	0.03938029
441.898	0.03932657
442.109	0.03915074
442.32	0.03880399
442.531	0.0386628
442.741	0.03848758
442.952	0.03821162
443.163	0.03806918
443.374	0.03770183
443.584	0.03721017
443.795	0.03701705
444.006	0.03660688
444.216	0.03633299
444.427	0.03611395
444.638	0.03574835
444.848	0.035502
445.059	0.0353661
445.27	0.03517291
445.48	0.03501126
445.691	0.03478838
445.901	0.03457768
446.112	0.03433583
446.323	0.03405742
446.533	0.03373276
446.744	0.03325605
446.954	0.03297507
447.165	0.03262255
447.375	0.03225939
447.586	0.03200003
447.796	0.0316761
448.006	0.03153585
448.217	0.0314814
448.427	0.03127739
448.638	0.03122462
448.848	0.03082349
449.058	0.03062354
449.269	0.03047245
449.479	0.03011841
449.689	0.02976862
449.9	0.02954802
450.11	0.0293231
450.32	0.0293421
450.531	0.02917621
450.741	0.02892576
450.951	0.02890708
451.161	0.02877589
451.372	0.02857262
451.582	0.02836861
451.792	0.02816253
452.002	0.02795245
452.212	0.02777262
452.422	0.02760479
452.633	0.02740572
452.843	0.02713616
453.053	0.02674675
453.263	0.02662612
453.473	0.02631514
453.683	0.02594554
453.893	0.02564703
454.103	0.025339
454.313	0.02506204
454.523	0.02489747
454.733	0.02463251
454.943	0.02448343
455.153	0.02453756
455.363	0.02427121
455.573	0.02401895
455.783	0.02396071
455.993	0.02374539
456.203	0.0234907
456.413	0.02337913
456.623	0.02311444
456.833	0.02286236
457.042	0.02272979
457.252	0.02240787
457.462	0.02218749
457.672	0.02196733
457.882	0.02180416
458.091	0.02156025
458.301	0.02146806
458.511	0.02135955
458.721	0.02136232
458.931	0.02133916
459.14	0.02129353
459.35	0.02107593
459.56	0.02093397
459.769	0.02077225
459.979	0.02056141
460.189	0.02028533
460.398	0.0201076
460.608	0.01989513
460.817	0.0197585
461.027	0.0196583
461.237	0.01946795
461.446	0.01937663
461.656	0.01915992
461.865	0.01885228
462.075	0.01874144
462.284	0.0186022
462.494	0.01842681
462.703	0.01823502
462.913	0.0179971
463.122	0.01794646
463.332	0.01798512
463.541	0.01773376
463.751	0.01754259
463.96	0.01734507
464.169	0.01730562
464.379	0.01721265
464.588	0.01714784
464.797	0.01695983
465.007	0.01675989
465.216	0.01660548
465.425	0.01649796
465.635	0.01630455
465.844	0.01623786
466.053	0.01594902
466.263	0.01572497
466.472	0.01570074
466.681	0.01556614
466.89	0.01541318
467.099	0.0153373
467.309	0.01518283
467.518	0.01510548
467.727	0.01501642
467.936	0.01490676
468.145	0.01477137
468.354	0.01472479
468.563	0.01463967
468.772	0.01450721
468.982	0.01441501
469.191	0.01432455
469.4	0.01417349
469.609	0.01414777
469.818	0.0140005
470.027	0.01383786
470.236	0.0138299
470.445	0.01373985
470.654	0.01356434
470.863	0.01345194
471.072	0.01342447
471.28	0.01331676
471.489	0.01327984
471.698	0.01307744
471.907	0.01300535
472.116	0.01290789
472.325	0.01285878
472.534	0.01262222
472.743	0.0124813
472.951	0.01242559
473.16	0.01229026
473.369	0.01216296
473.578	0.01217302
473.786	0.01211683
473.995	0.01204705
474.204	0.01203246
474.413	0.01187417
474.621	0.01195764
474.83	0.01193993
475.039	0.01195304
475.247	0.01187223
475.456	0.01190903
475.665	0.01180243
475.873	0.01179941
476.082	0.01173794
476.291	0.01172666
476.499	0.01154231
476.708	0.01149623
476.916	0.01141472
477.125	0.01141265
477.333	0.01134379
477.542	0.01119148
477.75	0.01112788
477.959	0.01108243
478.167	0.01101222
478.376	0.01084377
478.584	0.01079492
478.793	0.01076532
479.001	0.01077521
479.209	0.01060733
479.418	0.01056921
479.626	0.01049832
479.834	0.01046949
480.043	0.01042814
480.251	0.0103312
480.459	0.01025102
480.668	0.01030866
480.876	0.0103054
481.084	0.01034817
481.293	0.01031726
481.501	0.01028337
481.709	0.0102114
481.917	0.01017454
482.125	0.01006922
482.334	0.01006053
482.542	0.00996318
482.75	0.01005905
482.958	0.01008668
483.166	0.01007766
483.374	0.01007144
483.583	0.01006484
483.791	0.00999415
483.999	0.01000764
484.207	0.00992496
484.415	0.00982159
484.623	0.00977527
484.831	0.00976303
485.039	0.00977016
485.247	0.00978672
485.455	0.009711
485.663	0.00966872
485.871	0.00967851
486.079	0.00965388
486.287	0.00960171
486.495	0.00957319
486.702	0.00949364
486.91	0.00950683
487.118	0.00950975
487.326	0.00950197
487.534	0.00958176
487.742	0.00956972
487.95	0.00957517
488.157	0.00965091
488.365	0.00973708
488.573	0.00967044
488.781	0.00969969
488.988	0.00967045
489.196	0.00969574
489.404	0.00972826
489.612	0.00969457
489.819	0.00965506
490.027	0.00972127
490.235	0.00976068
490.442	0.00971048
490.65	0.00972934
490.857	0.00967086
491.065	0.00965273
491.273	0.00963801
491.48	0.00959179
491.688	0.00953006
491.895	0.0096108
492.103	0.00960168
492.31	0.00962593
492.518	0.00962032
492.725	0.00957032
492.933	0.00959005
493.14	0.00962227
493.348	0.00964266
493.555	0.00965372
493.763	0.00972698
493.97	0.00974086
494.177	0.00980351
494.385	0.00984076
494.592	0.00984724
494.8	0.00980752
495.007	0.00975955
495.214	0.00968542
495.422	0.00978226
495.629	0.00979703
495.836	0.00983837
496.043	0.00982287
496.251	0.00985521
496.458	0.00989876
496.665	0.00994357
496.872	0.00995259
497.08	0.0100555
497.287	0.01009532
497.494	0.01008754
497.701	0.01011907
497.908	0.01015858
498.115	0.01017307
498.322	0.01018942
498.53	0.01015231
498.737	0.01016797
498.944	0.01024411
499.151	0.01028654
499.358	0.01031029
499.565	0.01036698
499.772	0.01040712
499.979	0.01038937
500.186	0.01035777
500.393	0.01037431
500.6	0.01043508
500.807	0.01047509
501.014	0.01055661
501.221	0.01058118
501.427	0.01058249
501.634	0.01068251
501.841	0.01076846
502.048	0.01075358
502.255	0.01077154
502.462	0.01071312
502.669	0.01070642
502.875	0.01082265
503.082	0.01080699
503.289	0.01083185
503.496	0.0109277
503.702	0.01099162
503.909	0.01113178
504.116	0.01118871
504.323	0.01120998
504.529	0.01131531
504.736	0.01127654
504.943	0.01129935
505.149	0.01137526
505.356	0.01139385
505.563	0.01145982
505.769	0.01150048
505.976	0.0115222
506.182	0.01164339
506.389	0.01170883
506.595	0.01172088
506.802	0.0117049
507.008	0.01171192
507.215	0.01174246
507.421	0.01178711
507.628	0.01184627
507.834	0.01181796
508.041	0.01191082
508.247	0.01194561
508.454	0.01200617
508.66	0.0120561
508.866	0.01213835
509.073	0.01216893
509.279	0.01225137
509.486	0.0122255
509.692	0.01237455
509.898	0.01241816
510.105	0.01244446
510.311	0.01251558
510.517	0.01258274
510.723	0.01271208
510.93	0.01282613
511.136	0.01288057
511.342	0.01291947
511.548	0.01303748
511.754	0.01304066
511.961	0.01306156
512.167	0.01303168
512.373	0.01305174
512.579	0.01311109
512.785	0.01322787
512.991	0.01329595
513.197	0.01332424
513.404	0.01344481
513.61	0.01352459
513.816	0.01363906
514.022	0.01364161
514.228	0.0136502
514.434	0.01369433
514.64	0.01380818
514.846	0.01383961
515.052	0.01389944
515.258	0.0139155
515.464	0.01400555
515.669	0.01412182
515.875	0.01421018
516.081	0.01429581
516.287	0.01437863
516.493	0.01448096
516.699	0.01451219
516.905	0.01459109
517.111	0.01468387
517.316	0.0147007
517.522	0.0147632
517.728	0.01485615
517.934	0.01489266
518.139	0.01501217
518.345	0.01502333
518.551	0.01507775
518.757	0.01517363
518.962	0.01523502
519.168	0.01528006
519.374	0.01534706
519.579	0.01548329
519.785	0.01563451
519.991	0.01567261
520.196	0.01579382
520.402	0.01589458
520.607	0.01597692
520.813	0.01607148
521.018	0.01609952
521.224	0.01614097
521.429	0.0162462
521.635	0.01629391
521.84	0.01635154
522.046	0.01643142
522.251	0.01651423
522.457	0.01657775
522.662	0.01666789
522.868	0.01676174
523.073	0.01686914
523.279	0.01693692
523.484	0.01701492
523.689	0.0170647
523.895	0.01716723
524.1	0.01727194
524.305	0.01740388
524.511	0.01741272
524.716	0.0175152
524.921	0.01760548
525.126	0.01770813
525.332	0.01781669
525.537	0.01788457
525.742	0.01786376
525.947	0.01800708
526.153	0.01805598
526.358	0.01811295
526.563	0.01819759
526.768	0.01825905
526.973	0.01832496
527.178	0.01846247
527.383	0.01856562
527.588	0.01868033
527.794	0.01878756
527.999	0.0189034
528.204	0.01902236
528.409	0.01912919
528.614	0.01919894
528.819	0.0192526
529.024	0.01933341
529.229	0.01940817
529.434	0.01950617
529.639	0.0195597
529.843	0.01964118
530.048	0.01978722
530.253	0.01990947
530.458	0.02003542
530.663	0.02016666
530.868	0.0202697
531.073	0.0203584
531.278	0.02045675
531.482	0.02051263
531.687	0.0205904
531.892	0.0206966
532.097	0.02082495
532.302	0.02093966
532.506	0.02108832
532.711	0.02124297
532.916	0.02134823
533.12	0.02145287
533.325	0.02154135
533.53	0.02162081
533.734	0.02171339
533.939	0.02183803
534.144	0.0219706
534.348	0.02210503
534.553	0.02222859
534.757	0.02232242
534.962	0.02240543
535.167	0.02252267
535.371	0.02259512
535.576	0.02263151
535.78	0.02272554
535.985	0.02282783
536.189	0.02295125
536.394	0.023082
536.598	0.02314931
536.803	0.02326602
537.007	0.02340899
537.211	0.02351046
537.416	0.02361404
537.62	0.02372107
537.825	0.02381467
538.029	0.0239665
538.233	0.02407055
538.438	0.02418262
538.642	0.02429958
538.846	0.02442705
539.05	0.0245489
539.255	0.02467848
539.459	0.02479747
539.663	0.02492092
539.867	0.02501035
540.072	0.02512419
540.276	0.02524181
540.48	0.02536766
540.684	0.02544961
540.888	0.02552605
541.092	0.0255889
541.297	0.02568791
541.501	0.02580748
541.705	0.0259065
541.909	0.0259694
542.113	0.02609622
542.317	0.02626226
542.521	0.02640181
542.725	0.0265423
542.929	0.0266736
543.133	0.02680759
543.337	0.02698479
543.541	0.02717412
543.745	0.02727748
543.949	0.02746742
544.153	0.02760063
544.357	0.02774212
544.56	0.02789791
544.764	0.02801251
544.968	0.02810077
545.172	0.02823018
545.376	0.02833077
545.58	0.02842275
545.783	0.02854679
545.987	0.02865664
546.191	0.02879295
546.395	0.02892772
546.598	0.02901215
546.802	0.02913891
547.006	0.02931517
547.21	0.02942353
547.413	0.02955859
547.617	0.02965645
547.821	0.02977597
548.024	0.02990567
548.228	0.03004482
548.431	0.03016155
548.635	0.03025057
548.839	0.03034196
549.042	0.03048034
549.246	0.03059444
549.449	0.03076621
549.653	0.0308768
549.856	0.03103848
550.06	0.03121031
550.263	0.03138472
550.467	0.03151099
550.67	0.03167397
550.874	0.03178914
551.077	0.03198172
551.28	0.0321005
551.484	0.03223349
551.687	0.03233938
551.891	0.03250028
552.094	0.03260793
552.297	0.03277541
552.501	0.03290234
552.704	0.0329902
552.907	0.03316276
553.11	0.03333885
553.314	0.03349897
553.517	0.03361229
553.72	0.03370717
553.923	0.03375189
554.127	0.03396022
554.33	0.0340343
554.533	0.03417865
554.736	0.03428608
554.939	0.03447474
555.142	0.03459319
555.345	0.03478559
555.549	0.03487935
555.752	0.03504696
555.955	0.0350953
556.158	0.03523927
556.361	0.03533751
556.564	0.03552055
556.767	0.03562735
556.97	0.03577628
557.173	0.03588391
557.376	0.0360628
557.579	0.03617374
557.782	0.03634575
557.984	0.03646193
558.187	0.03666943
558.39	0.03678803
558.593	0.03696905
558.796	0.03712663
558.999	0.03728951
559.202	0.03742067
559.404	0.03754622
559.607	0.03768951
559.81	0.03787037
560.013	0.03804083
560.216	0.03817282
560.418	0.03829569
560.621	0.0384325
560.824	0.03858376
561.026	0.03867034
561.229	0.03880622
561.432	0.03889672
561.634	0.03903735
561.837	0.03921787
562.04	0.03938184
562.242	0.03955533
562.445	0.03971716
562.647	0.03986526
562.85	0.04006186
563.053	0.04024062
563.255	0.04037722
563.458	0.04053957
563.66	0.04071982
563.863	0.04087525
564.065	0.04100421
564.268	0.04109559
564.47	0.04123166
564.672	0.04137493
564.875	0.04148543
565.077	0.04163595
565.28	0.04176207
565.482	0.04193103
565.684	0.04208575
565.887	0.04220242
566.089	0.04232664
566.291	0.04248379
566.494	0.04256232
566.696	0.04272373
566.898	0.04283112
567.1	0.04298317
567.303	0.04316866
567.505	0.04332604
567.707	0.04347918
567.909	0.04364346
568.111	0.04377741
568.314	0.04397657
568.516	0.0441507
568.718	0.04430241
568.92	0.04443741
569.122	0.04458485
569.324	0.04474984
569.526	0.04488615
569.728	0.04500065
569.93	0.04509704
570.132	0.04520755
570.334	0.04540409
570.536	0.04551397
570.738	0.04563938
570.94	0.045774
571.142	0.04594845
571.344	0.04613952
571.546	0.04630654
571.748	0.04641248
571.95	0.04659479
572.152	0.04673716
572.354	0.04691976
572.555	0.04704747
572.757	0.04718984
572.959	0.04734521
573.161	0.04754961
573.363	0.04768721
573.564	0.04786156
573.766	0.04800511
573.968	0.04819469
574.17	0.04832017
574.371	0.04844743
574.573	0.04856176
574.775	0.048711
574.976	0.04881363
575.178	0.04896239
575.38	0.04904547
575.581	0.04918444
575.783	0.04933205
575.985	0.04947564
576.186	0.04966062
576.388	0.04982811
576.589	0.04995686
576.791	0.05014481
576.992	0.05032018
577.194	0.05049806
577.395	0.05062253
577.597	0.05071131
577.798	0.05087945
578	0.05102085
578.201	0.05118768
578.402	0.05128111
578.604	0.05139067
578.805	0.0515621
579.007	0.05171159
579.208	0.05184354
579.409	0.05199655
579.611	0.05213253
579.812	0.05233558
580.013	0.05254815
580.215	0.05268074
580.416	0.05286545
580.617	0.05304268
580.818	0.05318589
581.019	0.05331822
581.221	0.05345311
581.422	0.0535546
581.623	0.05371507
581.824	0.05380913
582.025	0.0539191
582.226	0.05405606
582.428	0.05420672
582.629	0.05434824
582.83	0.0544706
583.031	0.05459193
583.232	0.05476496
583.433	0.05492197
583.634	0.05507231
583.835	0.05519476
584.036	0.05531568
584.237	0.05548901
584.438	0.05560089
584.639	0.05574004
584.84	0.05588329
585.041	0.05598979
585.242	0.056107
585.442	0.05624262
585.643	0.05635577
585.844	0.05652047
586.045	0.05663404
586.246	0.05672318
586.447	0.05688114
586.647	0.05700718
586.848	0.05712841
587.049	0.05728209
587.25	0.05739104
587.45	0.05751116
587.651	0.05766231
587.852	0.05777053
588.053	0.05793502
588.253	0.05805358
588.454	0.0581443
588.655	0.05827807
588.855	0.05840305
589.056	0.05848451
589.256	0.05862014
589.457	0.05872504
589.658	0.05886886
589.858	0.0589676
590.059	0.059101
590.259	0.05928922
590.46	0.05948862
590.66	0.05962901
590.861	0.05975161
591.061	0.05989689
591.262	0.06012218
591.462	0.06026349
591.662	0.06030311
591.863	0.06038903
592.063	0.06051185
592.264	0.06061004
592.464	0.06072053
592.664	0.06076319
592.865	0.06090879
593.065	0.06106653
593.265	0.06118623
593.465	0.06126831
593.666	0.06138597
593.866	0.06151312
594.066	0.06167566
594.266	0.06173529
594.467	0.06181867
594.667	0.06195129
594.867	0.06209791
595.067	0.06223593
595.267	0.06233908
595.467	0.06240495
595.668	0.06251017
595.868	0.06267655
596.068	0.06274969
596.268	0.06285833
596.468	0.06295959
596.668	0.06304822
596.868	0.06319236
597.068	0.06329643
597.268	0.06340207
597.468	0.06353633
597.668	0.0636234
597.868	0.0637246
598.068	0.06390055
598.268	0.06398143
598.467	0.06413859
598.667	0.06420168
598.867	0.06427315
599.067	0.06439383
599.267	0.06448358
599.467	0.06452923
599.667	0.064591
599.866	0.06467175
600.066	0.06479328
600.266	0.06491167
600.466	0.06500672
600.665	0.06511928
600.865	0.06523156
601.065	0.06534024
601.264	0.0654456
601.464	0.06550014
601.664	0.06563032
601.863	0.06572913
602.063	0.06586495
602.263	0.06588618
602.462	0.06600628
602.662	0.06606489
602.861	0.06619558
603.061	0.06626551
603.26	0.06632702
603.46	0.06631529
603.659	0.06646756
603.859	0.06650596
604.058	0.06660704
604.258	0.06669785
604.457	0.06676685
604.657	0.0668318
604.856	0.06693807
605.056	0.06699399
605.255	0.06705885
605.454	0.0671009
605.654	0.06708976
605.853	0.06714654
606.052	0.06726572
606.252	0.06735336
606.451	0.06740174
606.65	0.06751549
606.849	0.06755495
607.049	0.06768291
607.248	0.0678001
607.447	0.06787479
607.646	0.06797019
607.845	0.06808217
608.045	0.0681
608.244	0.06822629
608.443	0.06829866
608.642	0.06839057
608.841	0.06848659
609.04	0.06850905
609.239	0.06859939
609.438	0.06871962
609.637	0.0688186
609.836	0.06889287
610.035	0.06891245
610.234	0.06897882
610.433	0.0690881
610.632	0.06914494
610.831	0.06925905
611.03	0.06929806
611.229	0.0694195
611.428	0.0694734
611.627	0.06949749
611.826	0.06954935
612.025	0.06964395
612.224	0.06967691
612.422	0.0697399
612.621	0.06976152
612.82	0.06983155
613.019	0.06989047
613.218	0.0699993
613.416	0.06996819
613.615	0.07003919
613.814	0.07013478
614.012	0.07016076
614.211	0.07020837
614.41	0.0702926
614.608	0.0702728
614.807	0.07033699
615.006	0.07037912
615.204	0.07038628
615.403	0.07049354
615.602	0.07058586
615.8	0.07065698
615.999	0.07072958
616.197	0.07081651
616.396	0.07088976
616.594	0.07096625
616.793	0.07102337
616.991	0.07100533
617.19	0.07096216
617.388	0.0710628
617.586	0.07110463
617.785	0.07110937
617.983	0.07114163
618.182	0.07114275
618.38	0.0712332
618.578	0.07136304
618.777	0.07140118
618.975	0.07145193
619.173	0.07153473
619.372	0.07157537
619.57	0.07159936
619.768	0.07165489
619.966	0.0716706
620.165	0.07168516
620.363	0.07173178
620.561	0.07169171
620.759	0.07176131
620.957	0.07185968
621.155	0.07191257
621.354	0.07189208
621.552	0.07195084
621.75	0.07196421
621.948	0.07208488
622.146	0.07210805
622.344	0.07213101
622.542	0.07212981
622.74	0.07221139
622.938	0.07218281
623.136	0.07225222
623.334	0.072287
623.532	0.07227496
623.73	0.0722721
623.928	0.07237555
624.126	0.0724049
624.324	0.0725103
624.522	0.07250352
624.719	0.07251329
624.917	0.07256673
625.115	0.07262306
625.313	0.07262846
625.511	0.07267645
625.708	0.07264064
625.906	0.07268571
626.104	0.07270726
626.302	0.07279307
626.499	0.07279896
626.697	0.07275176
626.895	0.07272187
627.093	0.07276242
627.29	0.07283279
627.488	0.07289046
627.686	0.07289807
627.883	0.07289396
628.081	0.07292643
628.278	0.07309546
628.476	0.07309095
628.673	0.07303729
628.871	0.07300397
629.068	0.07300511
629.266	0.07304603
629.463	0.07304145
629.661	0.07295917
629.858	0.07299061
630.056	0.07305875
630.253	0.07307092
630.451	0.07311429
630.648	0.07312086
630.845	0.07313714
631.043	0.07312905
631.24	0.07317808
631.438	0.07316788
631.635	0.07318209
631.832	0.07312757
632.029	0.07316906
632.227	0.07323565
632.424	0.07326199
632.621	0.07325533
632.818	0.0732485
633.016	0.07324844
633.213	0.07325741
633.41	0.07326609
633.607	0.07326859
633.804	0.0733161
634.001	0.07328204
634.199	0.07335287
634.396	0.0733688
634.593	0.0733795
634.79	0.07341242
634.987	0.07341362
635.184	0.07340433
635.381	0.07349739
635.578	0.07349995
635.775	0.07351694
635.972	0.0734919
636.169	0.07343067
636.366	0.07341358
636.563	0.07337795
636.76	0.07329127
636.957	0.07324423
637.153	0.07319445
637.35	0.07325821
637.547	0.07326616
637.744	0.07327288
637.941	0.07328626
638.138	0.07335177
638.334	0.0733381
638.531	0.07339197
638.728	0.073357
638.925	0.07339965
639.121	0.07341745
639.318	0.07343914
639.515	0.07339048
639.711	0.07344523
639.908	0.07341211
640.105	0.07341318
640.301	0.07341379
640.498	0.07337174
640.695	0.07339208
640.891	0.07339212
641.088	0.07333932
641.284	0.07335054
641.481	0.07331522
641.677	0.07327193
641.874	0.07325385
642.07	0.0732464
642.267	0.0732546
642.463	0.07325081
642.66	0.07325596
642.856	0.073248
643.053	0.07317998
643.249	0.07322709
643.445	0.07318457
643.642	0.07315788
643.838	0.07316701
644.034	0.07314065
644.231	0.07312604
644.427	0.07315134
644.623	0.07309599
644.82	0.0730782
645.016	0.07308636
645.212	0.07304977
645.408	0.0730468
645.604	0.07310544
645.801	0.07310913
645.997	0.07312644
646.193	0.07307861
646.389	0.07307412
646.585	0.07306152
646.781	0.07306447
646.977	0.0730183
647.173	0.07299627
647.37	0.07295369
647.566	0.07299437
647.762	0.07289811
647.958	0.07292023
648.154	0.07285262
648.35	0.07283431
648.546	0.0728205
648.742	0.07286977
648.937	0.07275327
649.133	0.07280718
649.329	0.07277778
649.525	0.07279642
649.721	0.07275915
649.917	0.07278494
650.113	0.07267911
650.309	0.07272706
650.504	0.07266531
650.7	0.07260402
650.896	0.07260914
651.092	0.07260254
651.287	0.07252155
651.483	0.07254382
651.679	0.07252782
651.875	0.07257787
652.07	0.07260467
652.266	0.07257888
652.462	0.07258499
652.657	0.07256959
652.853	0.0725369
653.048	0.07248162
653.244	0.07239551
653.44	0.07228759
653.635	0.07218103
653.831	0.07211942
654.026	0.07213718
654.222	0.07210146
654.417	0.07213365
654.613	0.07211316
654.808	0.07213137
655.004	0.07220392
655.199	0.07217377
655.394	0.07215716
655.59	0.07218642
655.785	0.07212783
655.98	0.07214116
656.176	0.07215804
656.371	0.07215443
656.566	0.07216052
656.762	0.07208721
656.957	0.07202907
657.152	0.07202976
657.348	0.07201772
657.543	0.07197246
657.738	0.07190268
657.933	0.07182422
658.128	0.07181152
658.324	0.07178066
658.519	0.07169481
658.714	0.07165768
658.909	0.07159796
659.104	0.07158782
659.299	0.07160303
659.494	0.07156378
659.689	0.07154403
659.884	0.07160268
660.079	0.07154683
660.274	0.07156326
660.469	0.07151833
660.664	0.07152021
660.859	0.07148665
661.054	0.07146276
661.249	0.0713834
661.444	0.07135382
661.639	0.07130724
661.834	0.07124344
662.029	0.07119739
662.224	0.0712069
662.418	0.0711634
662.613	0.07112735
662.808	0.07110126
663.003	0.07106273
663.198	0.07106968
663.392	0.07100024
663.587	0.07100514
663.782	0.07100156
663.977	0.07101308
664.171	0.07102161
664.366	0.07106438
664.561	0.07106715
664.755	0.07113982
664.95	0.07112087
665.144	0.07111143
665.339	0.07111876
665.534	0.07111584
665.728	0.07107898
665.923	0.07106655
666.117	0.07103156
666.312	0.0709456
666.506	0.0709849
666.701	0.07089251
666.895	0.07082936
667.09	0.07077986
667.284	0.07077232
667.479	0.07069172
667.673	0.07067121
667.867	0.07059152
668.062	0.07059908
668.256	0.07060421
668.45	0.07061552
668.645	0.07055271
668.839	0.07056169
669.033	0.07057042
669.228	0.07056291
669.422	0.07059369
669.616	0.07054459
669.81	0.07051294
670.004	0.07047203
670.199	0.07043746
670.393	0.07042122
670.587	0.07038349
670.781	0.07031564
670.975	0.07032926
671.169	0.07031178
671.363	0.07033334
671.558	0.07029438
671.752	0.07027024
671.946	0.07022961
672.14	0.0702006
672.334	0.07013011
672.528	0.07013668
672.722	0.07010081
672.916	0.07015399
673.11	0.07011052
673.304	0.07016145
673.497	0.07017557
673.691	0.07019114
673.885	0.07010131
674.079	0.07012138
674.273	0.07005459
674.467	0.07011464
674.661	0.07004072
674.854	0.07005359
675.048	0.07007369
675.242	0.07010696
675.436	0.07004077
675.629	0.07007552
675.823	0.06999857
676.017	0.06999885
676.211	0.06993141
676.404	0.06990319
676.598	0.06985463
676.792	0.06986052
676.985	0.06980294
677.179	0.06981298
677.372	0.06980268
677.566	0.06980692
677.76	0.06979416
677.953	0.06982745
678.147	0.06984752
678.34	0.06987459
678.534	0.06987065
678.727	0.06985917
678.921	0.06984708
679.114	0.06982977
679.307	0.06981419
679.501	0.06978289
679.694	0.06974256
679.888	0.0697152
680.081	0.06971827
680.274	0.0696721
680.468	0.06962153
680.661	0.06958357
680.854	0.06956007
681.048	0.0695481
681.241	0.06954752
681.434	0.0695133
681.627	0.06953034
681.821	0.06956848
682.014	0.06959889
682.207	0.06958919
682.4	0.06958876
682.593	0.06956194
682.786	0.06953441
682.98	0.0695271
683.173	0.06954569
683.366	0.0694966
683.559	0.06948927
683.752	0.06949899
683.945	0.06949318
684.138	0.0695357
684.331	0.0695287
684.524	0.06954498
684.717	0.0695725
684.91	0.06958396
685.103	0.06953741
685.296	0.06955146
685.489	0.06953614
685.682	0.06955303
685.874	0.06952019
686.067	0.06950549
686.26	0.0694886
686.453	0.06952882
686.646	0.06950233
686.839	0.06952462
687.031	0.06949265
687.224	0.06942047
687.417	0.06944814
687.61	0.06944706
687.802	0.06940029
687.995	0.06941778
688.188	0.06937903
688.38	0.06935086
688.573	0.06934007
688.766	0.06929828
688.958	0.06927752
689.151	0.06929066
689.343	0.06926638
689.536	0.06929871
689.729	0.06935448
689.921	0.06941587
690.114	0.06938248
690.306	0.06936392
690.499	0.06938796
690.691	0.06943509
690.884	0.06940214
691.076	0.06941515
691.268	0.06938396
691.461	0.06938862
691.653	0.06940439
691.846	0.0693968
692.038	0.06935467
692.23	0.06931256
692.423	0.06930428
692.615	0.06932877
692.807	0.0693583
692.999	0.06937696
693.192	0.06934672
693.384	0.06936934
693.576	0.06937929
693.768	0.06933483
693.961	0.06930873
694.153	0.06931452
694.345	0.06932024
694.537	0.06937622
694.729	0.06936184
694.921	0.0693759
695.113	0.06939842
695.305	0.06939102
695.498	0.06935157
695.69	0.06942911
695.882	0.06939068
696.074	0.06943519
696.266	0.06946001
696.458	0.06947047
696.65	0.06954472
696.842	0.06959258
697.033	0.06951089
697.225	0.06951849
697.417	0.06952774
697.609	0.06956345
697.801	0.06957369
697.993	0.06951464
698.185	0.06950798
698.376	0.0694965
698.568	0.06950872
698.76	0.06953487
698.952	0.06947776
699.144	0.06949554
699.335	0.06955186
699.527	0.06954717
699.719	0.06960596
699.91	0.06964378
700.102	0.06960695
700.294	0.06964225
700.485	0.06962141
700.677	0.0695984
700.869	0.06962782
701.06	0.06965503
701.252	0.06963374
701.443	0.06966479
701.635	0.0696457
701.826	0.0696891
702.018	0.06971522
702.209	0.06978795
702.401	0.06974412
702.592	0.0697854
702.784	0.06974791
702.975	0.06980056
703.166	0.06980395
703.358	0.06979798
703.549	0.06977188
703.741	0.06984842
703.932	0.06984012
704.123	0.06987326
704.315	0.06992754
704.506	0.0699734
704.697	0.0700104
704.888	0.07006877
705.08	0.0700596
705.271	0.07011398
705.462	0.07016458
705.653	0.07014915
705.844	0.07012366
706.035	0.07016989
706.227	0.07014916
706.418	0.07015929
706.609	0.0701584
706.8	0.07016981
706.991	0.07020014
707.182	0.07027818
707.373	0.07022799
707.564	0.07021931
707.755	0.07025596
707.946	0.07029413
708.137	0.07029741
708.328	0.07030632
708.519	0.07030936
708.71	0.07037641
708.901	0.07042995
709.092	0.07046794
709.283	0.07045468
709.473	0.07052815
709.664	0.07059277
709.855	0.07062383
710.046	0.07065126
710.237	0.07063628
710.427	0.07063053
710.618	0.07065317
710.809	0.07062098
711	0.07058889
711.19	0.0705454
711.381	0.07055561
711.572	0.07060477
711.762	0.07061206
711.953	0.07061913
712.144	0.0706686
712.334	0.07069229
712.525	0.07076706
712.715	0.07078107
712.906	0.07075845
713.097	0.07078269
713.287	0.0708261
713.478	0.07085174
713.668	0.07092614
713.859	0.07098943
714.049	0.07107291
714.239	0.0712024
714.43	0.07123243
714.62	0.07127122
714.811	0.07132277
715.001	0.07133306
715.191	0.07129167
715.382	0.07126395
715.572	0.07123066
715.762	0.07123576
715.953	0.07126859
716.143	0.0712644
716.333	0.07128787
716.523	0.07134383
716.714	0.07140915
716.904	0.07141781
717.094	0.07146778
717.284	0.07149933
717.474	0.07149623
717.664	0.07151431
717.855	0.07150247
718.045	0.07155176
718.235	0.07159379
718.425	0.07167793
718.615	0.07171052
718.805	0.07175591
718.995	0.07185033
719.185	0.07195246
719.375	0.07201639
719.565	0.07208042
719.755	0.07209432
719.945	0.07213586
720.135	0.07223512
720.325	0.07222557
720.515	0.07224641
720.704	0.07224872
720.894	0.07232875
721.084	0.07240213
721.274	0.07246212
721.464	0.07248267
721.654	0.07252843
721.843	0.07255406
722.033	0.07255069
722.223	0.07254901
722.413	0.0726043
722.602	0.07261934
722.792	0.0726751
722.982	0.07268015
723.171	0.07270451
723.361	0.07275164
723.55	0.0727863
723.74	0.07275315
723.93	0.07278285
724.119	0.07280872
724.309	0.07283462
724.498	0.07288741
724.688	0.0729422
724.877	0.07295075
725.067	0.07302523
725.256	0.07302859
725.446	0.07304169
725.635	0.07311465
725.825	0.07312781
726.014	0.07314123
726.203	0.07316696
726.393	0.07314103
726.582	0.0731592
726.771	0.07319691
726.961	0.07320047
727.15	0.07322997
727.339	0.07319383
727.529	0.07321262
727.718	0.07319594
727.907	0.07322955
728.096	0.07323427
728.286	0.07329182
728.475	0.07331179
728.664	0.07334641
728.853	0.07337996
729.042	0.07340024
729.231	0.07343066
729.42	0.07338561
729.609	0.07333615
729.799	0.07330316
729.988	0.07332002
730.177	0.07332036
730.366	0.073373
730.555	0.07337783
730.744	0.07339748
730.933	0.07345907
731.122	0.0735327
731.31	0.07359685
731.499	0.07364891
731.688	0.07364938
731.877	0.07364553
732.066	0.07372427
732.255	0.07367406
732.444	0.07365251
732.632	0.07366417
732.821	0.07363124
733.01	0.07368749
733.199	0.07368651
733.388	0.07367754
733.576	0.07375695
733.765	0.07379823
733.954	0.07382636
734.142	0.0738478
734.331	0.07385672
734.52	0.07393671
734.708	0.07393108
734.897	0.07394221
735.086	0.07394652
735.274	0.07391941
735.463	0.07391607
735.651	0.07392422
735.84	0.07394082
736.028	0.07395816
736.217	0.07396147
736.405	0.07397167
736.594	0.0739938
736.782	0.07401035
736.971	0.07400836
737.159	0.07398556
737.347	0.07401911
737.536	0.07407001
737.724	0.07411944
737.912	0.07416576
738.101	0.0742164
738.289	0.07423473
738.477	0.07425382
738.666	0.0742439
738.854	0.07419147
739.042	0.07420058
739.23	0.07417765
739.418	0.07419185
739.607	0.07424198
739.795	0.07431356
739.983	0.07437383
740.171	0.07438002
740.359	0.07436424
740.547	0.07438767
740.735	0.07438266
740.923	0.07435905
741.112	0.0743369
741.3	0.07432202
741.488	0.07435007
741.676	0.07443132
741.864	0.07448008
742.052	0.07457592
742.239	0.07455129
742.427	0.07452128
742.615	0.07449465
742.803	0.07454538
742.991	0.07447805
743.179	0.07443814
743.367	0.07440969
743.555	0.07453434
743.742	0.07465093
743.93	0.07473965
744.118	0.07470215
744.306	0.07472358
744.494	0.07479857
744.681	0.07479308
744.869	0.0747266
745.057	0.07465748
745.244	0.07466684
745.432	0.07473647
745.62	0.0748159
745.807	0.07481127
745.995	0.07478499
746.182	0.07481694
746.37	0.07485137
746.558	0.07485113
746.745	0.07484893
746.933	0.07481585
747.12	0.07487029
747.308	0.0749355
747.495	0.07497824
747.683	0.07497807
747.87	0.0750296
748.057	0.07502708
748.245	0.0750496
748.432	0.07501427
748.62	0.07500644
748.807	0.07496153
748.994	0.07496195
749.182	0.07495314
749.369	0.07498531
749.556	0.07507182
749.743	0.07504833
749.931	0.07506171
750.118	0.07508904
750.305	0.07511245
750.492	0.07504321
750.68	0.07505717
750.867	0.07493982
751.054	0.07493926
751.241	0.07489922
751.428	0.07490776
751.615	0.07492994
751.802	0.07500754
751.989	0.07501995
752.176	0.07511111
752.363	0.0751888
752.55	0.0752178
752.737	0.0752413
752.924	0.07521977
753.111	0.07518289
753.298	0.0751209
753.485	0.07509061
753.672	0.07503602
753.859	0.07504759
754.046	0.07502071
754.233	0.07501428
754.42	0.07504251
754.606	0.07505364
754.793	0.075019
754.98	0.07501401
755.167	0.07502126
755.353	0.07503217
755.54	0.07505375
755.727	0.07507478
755.914	0.0750789
756.1	0.07510879
756.287	0.07514024
756.474	0.07515216
756.66	0.07514826
756.847	0.07512299
757.033	0.07506535
757.22	0.07507888
757.407	0.07509922
757.593	0.07511732
757.78	0.07510362
757.966	0.0751034
758.153	0.07509038
758.339	0.07513541
758.526	0.07513392
758.712	0.07505965
758.898	0.07501659
759.085	0.07498586
759.271	0.07495674
759.458	0.07495629
759.644	0.07491422
759.83	0.07489241
760.017	0.07495275
760.203	0.07491079
760.389	0.07488666
760.576	0.07485988
760.762	0.07483995
760.948	0.07481226
761.134	0.07482862
761.32	0.0747439
761.507	0.07476281
761.693	0.07480527
761.879	0.07484521
762.065	0.07484731
762.251	0.07486276
762.437	0.07481287
762.623	0.07482628
762.809	0.07478152
762.995	0.07475627
763.181	0.07469961
763.367	0.07469021
763.553	0.07465501
763.739	0.07465543
763.925	0.07465707
764.111	0.07466966
764.297	0.07463539
764.483	0.07461797
764.669	0.07457561
764.855	0.07458049
765.041	0.07457822
765.227	0.07454919
765.412	0.07455784
765.598	0.07459868
765.784	0.07466819
765.97	0.07474023
766.156	0.07472607
766.341	0.07474859
766.527	0.07473887
766.713	0.07469017
766.898	0.07458815
767.084	0.07452601
767.27	0.07444024
767.455	0.07439756
767.641	0.07432467
767.827	0.07432238
768.012	0.07432949
768.198	0.07435368
768.383	0.07431136
768.569	0.07426371
768.754	0.07421473
768.94	0.074177
769.125	0.07414659
769.311	0.0740985
769.496	0.07402291
769.682	0.07405063
769.867	0.07402356
770.052	0.07410351
770.238	0.07412512
770.423	0.07408147
770.608	0.07409293
770.794	0.07408233
770.979	0.07396643
771.164	0.07397249
771.35	0.07386649
771.535	0.07384551
771.72	0.07383084
771.905	0.07379507
772.09	0.07381637
772.276	0.07383707
772.461	0.07380351
772.646	0.07379724
772.831	0.07376467
773.016	0.07366422
773.201	0.07365234
773.386	0.07362679
773.571	0.07357982
773.756	0.0735466
773.941	0.07348934
774.126	0.07351193
774.311	0.07354069
774.496	0.07352746
774.681	0.07346308
774.866	0.07340162
775.051	0.07339103
775.236	0.07345757
775.421	0.07330739
775.606	0.07323358
775.791	0.07313485
775.976	0.07314888
776.16	0.07311544
776.345	0.07306961
776.53	0.0729675
776.715	0.07298774
776.899	0.07298424
777.084	0.07291214
777.269	0.07277607
777.454	0.07270917
777.638	0.07264557
777.823	0.07260262
778.008	0.07254367
778.192	0.07251015
778.377	0.0724987
778.561	0.07255842
778.746	0.07255361
778.931	0.0725221
779.115	0.07248917
779.3	0.07247303
779.484	0.07239058
779.669	0.07234241
779.853	0.07223967
780.037	0.07221894
780.222	0.0721638
780.406	0.07208311
780.591	0.07203731
780.775	0.07202791
780.959	0.07202305
781.144	0.07200504
781.328	0.07193202
781.512	0.07188851
781.697	0.07183822
781.881	0.07178368
782.065	0.07179321
782.249	0.07168263
782.434	0.07167619
782.618	0.07170299
782.802	0.07168492
782.986	0.07167708
783.17	0.07156978
783.354	0.07147278
783.539	0.07145596
783.723	0.07132105
783.907	0.07126432
784.091	0.07121609
784.275	0.07109719
784.459	0.07109453
784.643	0.07106874
784.827	0.07103657
785.011	0.07099558
785.195	0.07095003
785.379	0.07089654
785.563	0.07090078
785.747	0.07081254
785.93	0.07073759
786.114	0.07066825
786.298	0.07061663
786.482	0.07052992
786.666	0.07050228
786.85	0.07045584
787.033	0.07045009
787.217	0.07040423
787.401	0.07036638
787.585	0.07036586
787.768	0.0702521
787.952	0.07015465
788.136	0.0699882
788.319	0.06988269
788.503	0.06976626
788.687	0.06966536
788.87	0.06959819
789.054	0.06961137
789.237	0.06953657
789.421	0.06954675
789.605	0.06950697
789.788	0.06948026
789.972	0.0694017
790.155	0.06928935
790.338	0.06919685
790.522	0.0691459
790.705	0.06904774
790.889	0.0689296
791.072	0.06887951
791.256	0.06888787
791.439	0.06886799
791.622	0.06878805
791.806	0.06870944
791.989	0.06870349
792.172	0.06865769
792.355	0.0685991
792.539	0.06847345
792.722	0.06838951
792.905	0.06834713
793.088	0.06828526
793.271	0.06824642
793.455	0.06821638
793.638	0.06809647
793.821	0.06808946
794.004	0.0680107
794.187	0.06801347
794.37	0.06794429
794.553	0.06786389
794.736	0.06784657
794.919	0.06782661
795.102	0.06773364
795.285	0.06768837
795.468	0.06758358
795.651	0.06753557
795.834	0.06749565
796.017	0.06741513
796.2	0.06732514
796.383	0.06722342
796.566	0.0671629
796.749	0.06707206
796.931	0.06700924
797.114	0.0668919
797.297	0.06679849
797.48	0.0667387
797.663	0.06671455
797.845	0.06665021
798.028	0.06660492
798.211	0.06655015
798.393	0.06647837
798.576	0.06641187
798.759	0.06633511
798.941	0.06627418
799.124	0.06615555
799.307	0.06608614
799.489	0.06597717
799.672	0.06595838
799.854	0.06589211
800.037	0.06584437
800.219	0.06576925
800.402	0.06572872
800.584	0.06561719
800.767	0.06554755
800.949	0.06541367
801.132	0.06530107
801.314	0.06519241
801.496	0.06507362
801.679	0.06497278
801.861	0.06485581
802.043	0.06476404
802.226	0.06470849
802.408	0.06461163
802.59	0.06460768
802.772	0.06455147
802.955	0.06450503
803.137	0.06450559
803.319	0.06445808
803.501	0.06432989
803.684	0.06424245
803.866	0.0640944
804.048	0.0640316
804.23	0.06399962
804.412	0.06386779
804.594	0.06383349
804.776	0.06383837
804.958	0.06383179
805.14	0.06378431
805.322	0.06370765
805.504	0.06358193
805.686	0.06354951
805.868	0.06340312
806.05	0.06325274
806.232	0.06311773
806.414	0.06306389
806.596	0.06290081
806.778	0.06277068
806.96	0.06269836
807.141	0.06260874
807.323	0.0626087
807.505	0.06255216
807.687	0.06242372
807.869	0.06240284
808.05	0.06237734
808.232	0.06221945
808.414	0.06218811
808.595	0.06206092
808.777	0.06194541
808.959	0.06187439
809.14	0.06180381
809.322	0.06166462
809.504	0.06160011
809.685	0.06151254
809.867	0.06143159
810.048	0.06139208
810.23	0.06131329
810.411	0.06123233
810.593	0.06116862
810.774	0.06109298
810.956	0.0609422
811.137	0.06086377
811.319	0.06077179
811.5	0.06067116
811.681	0.0605693
811.863	0.06048784
812.044	0.06043762
812.225	0.06038084
812.407	0.06026559
812.588	0.06014069
812.769	0.06003871
812.951	0.05993318
813.132	0.05986495
813.313	0.05970989
813.494	0.05953315
813.675	0.05939526
813.857	0.05929482
814.038	0.0591749
814.219	0.05908859
814.4	0.05903333
814.581	0.05900311
814.762	0.05901104
814.943	0.05896263
815.124	0.05888836
815.305	0.05882032
815.486	0.05867929
815.667	0.05852738
815.848	0.05838493
816.029	0.05827934
816.21	0.05818311
816.391	0.05814231
816.572	0.05812339
816.753	0.05816284
816.934	0.05810209
817.115	0.0580783
817.295	0.05802098
817.476	0.05791612
817.657	0.05777549
817.838	0.05765702
818.019	0.05743287
818.199	0.05729396
818.38	0.05707135
818.561	0.05689815
818.741	0.05680221
818.922	0.05668421
819.103	0.05651167
819.283	0.05643627
819.464	0.05635563
819.645	0.05635504
819.825	0.05630683
820.006	0.0562033
820.186	0.05612561
820.367	0.05611896
820.547	0.05604063
820.728	0.05591975
820.908	0.05581249
821.089	0.05579763
821.269	0.05574216
821.45	0.0557147
821.63	0.05563883
821.81	0.05561301
821.991	0.0555854
822.171	0.05551105
822.351	0.05532881
822.532	0.05519381
822.712	0.05509744
822.892	0.05495457
823.072	0.05484483
823.253	0.05471604
823.433	0.05463016
823.613	0.054576
823.793	0.05452535
823.973	0.05439072
824.154	0.05429361
824.334	0.05420889
824.514	0.05408229
824.694	0.05389546
824.874	0.05375352
825.054	0.05355808
825.234	0.05349774
825.414	0.05332661
825.594	0.05311806
825.774	0.05306765
825.954	0.05307936
826.134	0.05309696
826.314	0.05317081
826.494	0.05311984
826.674	0.05313394
826.854	0.05310371
827.033	0.05291249
827.213	0.05269145
827.393	0.05244308
827.573	0.05219636
827.753	0.0520001
827.932	0.05180984
828.112	0.05170098
828.292	0.05165179
828.472	0.05157474
828.651	0.05148645
828.831	0.0514371
829.011	0.0513756
829.19	0.05129972
829.37	0.05119122
829.549	0.05103195
829.729	0.05092976
829.909	0.0508082
830.088	0.05072229
830.268	0.05057933
830.447	0.05048345
830.627	0.05043793
830.806	0.05040591
830.986	0.05036518
831.165	0.0503313
831.344	0.05021587
831.524	0.05015578
831.703	0.05005789
831.883	0.04987327
832.062	0.04974867
832.241	0.04960831
832.421	0.04944505
832.6	0.04931836
832.779	0.04913493
832.958	0.04903157
833.138	0.04894038
833.317	0.04885239
833.496	0.04874425
833.675	0.04868602
833.854	0.048548
834.034	0.04850819
834.213	0.04841163
834.392	0.04834688
834.571	0.04823468
834.75	0.04809802
834.929	0.04791149
835.108	0.04784663
835.287	0.04772556
835.466	0.04758051
835.645	0.04748397
835.824	0.0473659
836.003	0.04732615
836.182	0.04733358
836.361	0.04723233
836.54	0.04714293
836.719	0.04704508
836.897	0.04686261
837.076	0.04681364
837.255	0.04670631
837.434	0.04648391
837.613	0.04640445
837.791	0.04625972
837.97	0.04618311
838.149	0.04615388
838.328	0.04602885
838.506	0.04594651
838.685	0.04596427
838.864	0.04591631
839.042	0.04582242
839.221	0.04573733
839.4	0.04555742
839.578	0.04543089
839.757	0.04523082
839.935	0.04504863
840.114	0.04485495
840.292	0.04478626
840.471	0.04473189
840.649	0.0447151
840.828	0.04458665
841.006	0.04456336
841.185	0.04450169
841.363	0.04445806
841.541	0.04433331
841.72	0.04413748
841.898	0.04399244
842.076	0.04389677
842.255	0.04375963
842.433	0.04366735
842.611	0.04354626
842.789	0.04345446
842.968	0.04336228
843.146	0.04327811
843.324	0.04320161
843.502	0.04312715
843.68	0.04303213
843.859	0.04299174
844.037	0.04285277
844.215	0.04275883
844.393	0.04262072
844.571	0.04254018
844.749	0.04241875
844.927	0.04232457
845.105	0.04217492
845.283	0.0421025
845.461	0.04207127
845.639	0.04202505
845.817	0.04194946
845.995	0.04192678
846.173	0.0418572
846.351	0.04178605
846.529	0.04174111
846.706	0.04159853
846.884	0.04148135
847.062	0.04132656
847.24	0.04112653
847.418	0.0409304
847.595	0.04081891
847.773	0.04074859
847.951	0.04067962
848.129	0.04064108
848.306	0.04060126
848.484	0.04056646
848.662	0.04054414
848.839	0.04045474
849.017	0.04033865
849.194	0.04025689
849.372	0.04011996
849.549	0.04000217
849.727	0.03984912
849.905	0.03967014
850.082	0.03945008
850.26	0.03931805
850.437	0.03915195
850.614	0.03900748
850.792	0.03893723
850.969	0.03885993
851.147	0.0388159
851.324	0.03884529
851.501	0.03869616
851.679	0.03864067
851.856	0.03854073
852.033	0.03837302
852.211	0.03824831
852.388	0.03808677
852.565	0.03793404
852.742	0.03786911
852.92	0.03769845
853.097	0.03761483
853.274	0.03754317
853.451	0.03750245
853.628	0.03745658
853.805	0.03737453
853.982	0.03725337
854.159	0.03720381
854.336	0.03714583
854.514	0.0369533
854.691	0.03675396
854.868	0.03664529
855.045	0.03648322
855.221	0.03637024
855.398	0.03622037
855.575	0.03602618
855.752	0.0360084
855.929	0.03598478
856.106	0.03592362
856.283	0.03589728
856.46	0.03580494
856.637	0.03576705
856.813	0.03574893
856.99	0.03562896
857.167	0.03553378
857.344	0.03538782
857.52	0.03531585
857.697	0.0351753
857.874	0.03500709
858.05	0.03489913
858.227	0.03479632
858.404	0.03466128
858.58	0.03458301
858.757	0.03449518
858.933	0.03448057
859.11	0.03440224
859.287	0.03430349
859.463	0.03426128
859.64	0.03414655
859.816	0.03401148
859.993	0.03385417
860.169	0.03368368
860.345	0.03358059
860.522	0.03342094
860.698	0.0332524
860.875	0.03316344
861.051	0.03310785
861.227	0.03296111
861.404	0.03288657
861.58	0.03279792
861.756	0.0327125
861.932	0.03259245
862.109	0.03249225
862.285	0.03241955
862.461	0.03236018
862.637	0.0322164
862.813	0.03209426
862.99	0.03200647
863.166	0.03190216
863.342	0.03183788
863.518	0.03176092
863.694	0.03165826
863.87	0.03160441
864.046	0.03161292
864.222	0.03161242
864.398	0.03169652
864.574	0.03165049
864.75	0.03149519
864.926	0.03145473
865.102	0.03140476
865.278	0.03120827
865.454	0.03107963
865.63	0.03082869
865.805	0.0306432
865.981	0.03058557
866.157	0.03050813
866.333	0.03037805
866.509	0.03041217
866.684	0.03035265
866.86	0.03034531
867.036	0.03032327
867.212	0.03025511
867.387	0.03009469
867.563	0.03002132
867.739	0.02980847
867.914	0.02959342
868.09	0.02946667
868.265	0.0293942
868.441	0.02925227
868.617	0.02927428
868.792	0.02925691
868.968	0.02928545
869.143	0.02936158
869.319	0.02933659
869.494	0.02937989
869.67	0.02941139
869.845	0.02928496
870.02	0.02916697
870.196	0.02899685
870.371	0.02879893
870.546	0.02863738
870.722	0.02845082
870.897	0.0281929
871.072	0.0280597
871.248	0.02792843
871.423	0.02785677
871.598	0.02771153
871.773	0.02768115
871.949	0.02750563
872.124	0.0276164
872.299	0.02754633
872.474	0.02747262
872.649	0.02734885
872.824	0.02728172
872.999	0.02715928
873.174	0.02707097
873.349	0.02686211
873.524	0.02674195
873.699	0.02661121
873.874	0.02647724
874.049	0.02650053
874.224	0.02647494
874.399	0.02646878
874.574	0.0263855
874.749	0.0263469
874.924	0.02632993
875.099	0.02626915
875.274	0.02617592
875.449	0.0260221
875.623	0.02592807
875.798	0.02577152
875.973	0.02560488
876.148	0.02550988
876.322	0.02539178
876.497	0.02527497
876.672	0.02525693
876.846	0.0251359
877.021	0.02510821
877.196	0.02515424
877.37	0.02519074
877.545	0.0252142
877.72	0.0251807
877.894	0.02510212
878.069	0.02512579
878.243	0.02504704
878.418	0.02484635
878.592	0.0246287
878.767	0.02459463
878.941	0.02443825
879.116	0.02424354
879.29	0.02402716
879.464	0.02397185
879.639	0.02400453
879.813	0.02402752
879.987	0.02390953
880.162	0.02390002
880.336	0.02389249
880.51	0.02392809
880.685	0.02382426
880.859	0.02363205
881.033	0.02347002
881.207	0.02333381
881.381	0.02319239
881.556	0.02309105
881.73	0.02289541
881.904	0.02288937
882.078	0.02285959
882.252	0.02282126
882.426	0.02283945
882.6	0.02286585
882.774	0.02288961
882.948	0.02290892
883.122	0.02288341
883.296	0.02279618
883.47	0.02270827
883.644	0.0226575
883.818	0.02242486
883.992	0.02234078
884.166	0.02215072
884.34	0.02200272
884.514	0.02186348
884.687	0.02171641
884.861	0.02170831
885.035	0.02176117
885.209	0.02168031
885.382	0.02170852
885.556	0.02167323
885.73	0.02169278
885.904	0.0217482
886.077	0.02148846
886.251	0.02136895
886.425	0.02105809
886.598	0.020946
886.772	0.02081675
886.945	0.0208353
887.119	0.02064419
887.292	0.02062918
887.466	0.02057321
887.64	0.02064044
887.813	0.02060008
887.986	0.02059722
888.16	0.02050965
888.333	0.02052755
888.507	0.02050722
888.68	0.02044979
888.854	0.02048479
889.027	0.02040606
889.2	0.02029358
889.374	0.02018116
889.547	0.0200227
889.72	0.01993544
889.893	0.01981311
890.067	0.01972593
890.24	0.01965734
890.413	0.01960026
890.586	0.01949567
890.759	0.01947024
890.933	0.01936662
891.106	0.01927303
891.279	0.01913006
891.452	0.01902494
891.625	0.01884647
891.798	0.01880299
891.971	0.01860426
892.144	0.01847176
892.317	0.01842919
892.49	0.01838949
892.663	0.01830408
892.836	0.01832471
893.009	0.01823947
893.182	0.01837569
893.355	0.01845084
893.527	0.01845307
893.7	0.01847741
893.873	0.01856626
894.046	0.01860102
894.219	0.01851188
894.391	0.01837537
894.564	0.01827736
894.737	0.0180647
894.91	0.01780938
895.082	0.01750454
895.255	0.01729639
895.428	0.01720163
895.6	0.0170565
895.773	0.01691487
895.945	0.01698786
896.118	0.01706074
896.291	0.01716183
896.463	0.01709638
896.636	0.01713254
896.808	0.01721739
896.981	0.01726098
897.153	0.01724506
897.326	0.01709412
897.498	0.01701591
897.67	0.01697895
897.843	0.01687132
898.015	0.01676993
898.187	0.01669254
898.36	0.0165984
898.532	0.01667442
898.704	0.01658116
898.877	0.01655429
899.049	0.01645765
899.221	0.01649995
899.393	0.01633688
899.566	0.01627376
899.738	0.01610874
899.91	0.01600873
900.082	0.01591572
900.254	0.01585775
900.426	0.01560319
900.598	0.01559612
900.77	0.01548309
900.942	0.01531922
901.114	0.01524307
901.286	0.01512555
901.458	0.0150532
901.63	0.01503306
901.802	0.01503042
901.974	0.01504453
902.146	0.01513525
902.318	0.01523343
902.49	0.01531877
902.662	0.01529302
902.834	0.01527426
903.005	0.0152165
903.177	0.01517713
903.349	0.01503019
903.521	0.01485583
903.693	0.01463665
903.864	0.01454004
904.036	0.01447918
904.208	0.01429391
904.379	0.01417886
904.551	0.01428868
904.723	0.01436502
904.894	0.01445578
905.066	0.01447756
905.237	0.01447004
905.409	0.01457102
905.58	0.01462851
905.752	0.01459737
905.923	0.01450031
906.095	0.01437206
906.266	0.01430986
906.438	0.01417843
906.609	0.01404433
906.78	0.01383251
906.952	0.01364852
907.123	0.01361392
907.295	0.01357636
907.466	0.01349137
907.637	0.01348163
907.808	0.01338186
907.98	0.01336848
908.151	0.01345046
908.322	0.01337979
908.493	0.01333639
908.665	0.01330757
908.836	0.01335639
909.007	0.01339522
909.178	0.01339031
909.349	0.01329815
909.52	0.01315658
909.691	0.01307943
909.862	0.01300084
910.033	0.01294801
910.204	0.01295869
910.375	0.01291396
910.546	0.01279168
910.717	0.01287841
910.888	0.01297776
911.059	0.01297275
911.23	0.01282931
911.401	0.01285286
911.572	0.01285954
911.742	0.01278216
911.913	0.01268406
912.084	0.01253145
912.255	0.01242844
912.426	0.01226166
912.596	0.01197191
912.767	0.01170936
912.938	0.01159067
913.108	0.01144899
913.279	0.01133652
913.45	0.01135579
913.62	0.01132533
913.791	0.01146122
913.962	0.0116122
914.132	0.0118367
914.303	0.01190821
914.473	0.01190626
914.644	0.01181643
914.814	0.01175693
914.985	0.01155419
915.155	0.01145662
915.326	0.01116902
915.496	0.01099347
915.666	0.01087635
915.837	0.01078594
916.007	0.01076421
916.177	0.01072187
916.348	0.01059129
916.518	0.01064286
916.688	0.01058493
916.858	0.01064739
917.029	0.01071241
917.199	0.01083563
917.369	0.01079213
917.539	0.01093251
917.709	0.01083169
917.88	0.01077072
918.05	0.01061087
918.22	0.01045717
918.39	0.01031364
918.56	0.01036113
918.73	0.01012677
918.9	0.01002766
919.07	0.00999782
919.24	0.01008554
919.41	0.01013628
919.58	0.01019676
919.75	0.01009156
919.92	0.01014245
920.09	0.01017996
920.26	0.01023881
920.429	0.01021702
920.599	0.01027029
920.769	0.010185
920.939	0.01008548
921.109	0.00995648
921.278	0.00997942
921.448	0.01001905
921.618	0.00994677
921.787	0.00975088
921.957	0.00963796
922.127	0.00969865
922.296	0.00977906
922.466	0.00966734
922.636	0.00959685
922.805	0.00965006
922.975	0.00964089
923.144	0.00972681
923.314	0.00972051
923.483	0.0096931
923.653	0.00978331
923.822	0.00968835
923.992	0.00954726
924.161	0.00950252
924.331	0.00923967
924.5	0.0091574
924.669	0.00897217
924.839	0.00885183
925.008	0.00884789
925.177	0.00883412
925.347	0.00882842
925.516	0.008913
925.685	0.00891553
925.854	0.00906782
926.023	0.0091233
926.193	0.00908991
926.362	0.00897068
926.531	0.00892656
926.7	0.00895219
926.869	0.00881462
927.038	0.00869094
927.207	0.00844587
927.376	0.00831897
927.545	0.00826225
927.715	0.00825676
927.884	0.0081173
928.052	0.00811069
928.221	0.00813839
928.39	0.00815648
928.559	0.00826145
928.728	0.00822015
928.897	0.00811776
929.066	0.00821672
929.235	0.00832601
929.404	0.00810572
929.572	0.00816426
929.741	0.00809406
929.91	0.00807114
930.079	0.00816548
930.247	0.00800814
930.416	0.00789787
930.585	0.00799604
930.753	0.00789239
930.922	0.00794875
931.091	0.00796113
931.259	0.00792715
931.428	0.00795986
931.596	0.00796297
931.765	0.0079469
931.934	0.00790287
932.102	0.00792128
932.27	0.00783467
932.439	0.00780899
932.607	0.00783535
932.776	0.00784968
932.944	0.00767537
933.113	0.0077078
933.281	0.0073414
933.449	0.00742938
933.618	0.00718547
933.786	0.00718768
933.954	0.00690539
934.123	0.00696015
934.291	0.006748
934.459	0.0069332
934.627	0.00696907
934.795	0.00713108
934.964	0.00705576
935.132	0.00719497
935.3	0.00717435
935.468	0.00725578
935.636	0.00733113
935.804	0.00722724
935.972	0.00721918
936.14	0.00708371
936.308	0.00715696
936.476	0.00710676
936.644	0.00727086
936.812	0.00727483
936.98	0.00739998
937.148	0.00737272
937.316	0.00777728
937.484	0.00768902
937.652	0.00803443
937.82	0.00803933
937.987	0.00788281
938.155	0.00794316
938.323	0.00833001
938.491	0.00823618
938.658	0.00851219
938.826	0.00825319
938.994	0.00859496
939.162	0.00880645
939.329	0.00867382
939.497	0.00839176
939.665	0.008312
939.832	0.00819379
940	0.00811305
940.167	0.00827855
940.335	0.00810561
940.502	0.00868243
940.67	0.00860886
940.837	0.00852362
941.005	0.00848124
941.172	0.00884309
941.34	0.00812103
941.507	0.0084444
941.674	0.00837305
941.842	0.00781489
942.009	0.00856605
942.177	0.00881732
942.344	0.00928839
942.511	0.0097289
942.678	0.00930848
942.846	0.00927442
943.013	0.010079
943.18	0.00943018
943.347	0.00931891
943.514	0.0092904
943.682	0.009369
943.849	0.0095329
944.016	0.00895764
944.183	0.00930372
944.35	0.00961709
944.517	0.00979981
944.684	0.00999106
944.851	0.00975282
945.018	0.00918499
945.185	0.00933459
945.352	0.00927577
945.519	0.00967808
945.686	0.00928998
945.853	0.00835471
946.02	0.00872526
946.187	0.00938169
946.353	0.00891888
946.52	0.00800188
946.687	0.00721626
946.854	0.00716498
947.021	0.00812754
947.187	0.00786915
947.354	0.00812076
947.521	0.00841443
947.687	0.00873706
947.854	0.00783395
948.021	0.00820617
948.187	0.00839276
948.354	0.00875651
948.52	0.00811681
948.687	0.0076894
948.854	0.00776892
949.02	0.00842414
949.187	0.00861175
949.353	0.00812502
949.52	0.0077016
949.686	0.00762091
949.852	0.00770629
950.019	0.00852436
950.185	0.00865875
950.352	0.00864883
950.518	0.00863697
950.684	0.00811815
950.851	0.0075901
951.017	0.00781069
951.183	0.00693565
951.349	0.00657357
951.516	0.00613702
951.682	0.00527427
951.848	0.00564644
952.014	0.00552989
952.18	0.00483337
952.346	0.00464201
952.512	0.00511075
952.679	0.00486246
952.845	0.00489318
953.011	0.00429531
953.177	0.00525895
953.343	0.00596446
953.509	0.00628724
953.675	0.00589653
953.841	0.00626354
954.007	0.00656034
954.172	0.00737485
954.338	0.00666115
954.504	0.00626947
954.67	0.00591149
954.836	0.00519818
955.002	0.00476295
955.167	0.00455414
955.333	0.00357143
955.499	0.0037602
955.665	0.00413638
955.83	0.00410921
955.996	0.00487956
956.162	0.00479348
956.327	0.00489433
956.493	0.00540041
956.659	0.00567117
956.824	0.00482976
956.99	0.00472578
957.155	0.00451007
957.321	0.00469122
957.486	0.00468049
957.652	0.00442245
957.817	0.00377577
957.983	0.00420744
958.148	0.00458759
958.314	0.00441937
958.479	0.00369964
958.644	0.00357042
958.81	0.00362267
958.975	0.00397975
959.14	0.0035588
959.306	0.00303724
959.471	0.00306403
959.636	0.00354084
959.801	0.00362921
959.967	0.00373316
960.132	0.00377184
960.297	0.00432283
960.462	0.00461197
960.627	0.00447886
960.792	0.00437823
960.957	0.0044162
961.123	0.00409516
961.288	0.00396295
961.453	0.00396173
961.618	0.00365142
961.783	0.00404554
961.948	0.0040224
962.113	0.00376225
962.277	0.00392895
962.442	0.00383794
962.607	0.00363359
962.772	0.00404621
962.937	0.00388166
963.102	0.00423389
963.267	0.00431364
963.431	0.00402895
963.596	0.00385916
963.761	0.0037744
963.926	0.00338042
964.09	0.00334786
964.255	0.0032609
964.42	0.00316514
964.584	0.0033232
964.749	0.00367979
964.914	0.00354869
965.078	0.00377912
965.243	0.00372729
965.407	0.00345084
965.572	0.00308243
965.736	0.00296616
965.901	0.0025613
966.065	0.00267418
966.23	0.0028159
966.394	0.0028475
966.559	0.00285395
966.723	0.00351305
966.887	0.00395496
967.052	0.00413957
967.216	0.00423185
967.38	0.00363092
967.545	0.00349086
967.709	0.00369447
967.873	0.0037945
968.037	0.00374039
968.202	0.00391179
968.366	0.00409073
968.53	0.00433173
968.694	0.00430793
968.858	0.00415891
969.022	0.00397271
969.187	0.00375146
969.351	0.00368188
969.515	0.00355365
969.679	0.00358035
969.843	0.00382533
970.007	0.00390788
970.171	0.00374427
970.335	0.00365451
970.499	0.00352512
970.662	0.00336533
970.826	0.0031879
970.99	0.00318625
971.154	0.00337581
971.318	0.00363492
971.482	0.00385714
971.645	0.00403894
971.809	0.00396315
971.973	0.00411822
972.137	0.00376127
972.3	0.00345989
972.464	0.00316336
972.628	0.00291114
972.791	0.00322663
972.955	0.00320601
973.119	0.00317452
973.282	0.00329342
973.446	0.00330917
973.609	0.0036747
973.773	0.00367597
973.936	0.00310767
974.1	0.00282156
974.263	0.00314353
974.427	0.00303718
974.59	0.00325496
974.754	0.00300415
974.917	0.0033429
975.08	0.00341568
975.244	0.00355281
975.407	0.00363112
975.57	0.00384486
975.734	0.00372039
975.897	0.00402103
976.06	0.00371356
976.223	0.00354509
976.387	0.00386821
976.55	0.00329353
976.713	0.00319894
976.876	0.00306668
977.039	0.00254876
977.202	0.00262039
977.365	0.00264741
977.528	0.00266024
977.692	0.00293421
977.855	0.00309972
978.018	0.00300147
978.181	0.00307492
978.344	0.00316514
978.506	0.00371001
978.669	0.00315399
978.832	0.0030022
978.995	0.00294383
979.158	0.00318906
979.321	0.00332959
979.484	0.00317289
979.646	0.00281369
979.809	0.00296146
979.972	0.00307436
980.135	0.00271569
980.297	0.00243393
980.46	0.00196529
980.623	0.00182596
980.786	0.00178582
980.948	0.0016665
981.111	0.00142109
981.273	0.00156381
981.436	0.00138702
981.599	0.00169066
981.761	0.00186578
981.924	0.00167189
982.086	0.00204422
982.249	0.00253669
982.411	0.00261155
982.573	0.00294296
982.736	0.00287681
982.898	0.00318621
983.061	0.00312802
983.223	0.0030811
983.385	0.00284004
983.548	0.00265496
983.71	0.00252975
983.872	0.00276049
984.034	0.00242176
984.197	0.00270036
984.359	0.0025402
984.521	0.00260442
984.683	0.00254727
984.845	0.00244524
985.008	0.00196371
985.17	0.00210187
985.332	0.00194919
985.494	0.00237253
985.656	0.00214007
985.818	0.00207255
985.98	0.00225104
986.142	0.00255625
986.304	0.00219069
986.466	0.00245695
986.628	0.00194372
986.79	0.00203641
986.952	0.00235723
987.113	0.00243652
987.275	0.00179854
987.437	0.0022677
987.599	0.002007
987.761	0.00210371
987.922	0.00222183
988.084	0.00221339
988.246	0.00251969
988.408	0.0034547
988.569	0.00295171
988.731	0.00381951
988.893	0.00434891
989.054	0.00410307
989.216	0.00475333
989.377	0.004048
989.539	0.00376136
989.701	0.00409274
989.862	0.00282209
990.024	0.00248419
990.185	0.00246078
990.347	0.00203543
990.508	0.00227663
990.669	0.00288306
990.831	0.00273505
990.992	0.0035381
991.154	0.00347595
991.315	0.00383537
991.476	0.00356261
991.638	0.00330122
991.799	0.00271925
991.96	0.00295952
992.121	0.00264241
992.283	0.00247296
992.444	0.00199351
992.605	0.002504
992.766	0.00255545
992.927	0.00197583
993.088	0.00141698
993.249	0.00126258
993.41	0.00095376
993.572	0.00094892
993.733	0.00000544
993.894	0.00014821
994.055	0.00067438
994.216	0.0009062
994.376	0.00118648
994.537	0.00195121
994.698	0.00257182
994.859	0.00278441
995.02	0.00297915
995.181	0.00307897
995.342	0.00290681
995.503	0.00274297
995.663	0.00274215
995.824	0.00226298
995.985	0.00237668
996.146	0.00267866
996.306	0.00305356
996.467	0.00323099
996.628	0.00333554
996.788	0.00386509
996.949	0.0045129
997.11	0.00527312
997.27	0.00526219
997.431	0.00435889
997.591	0.00432331
997.752	0.00436599
997.912	0.00387925
998.073	0.00278476
998.233	0.00163662
998.394	0.00040851
998.554	0.00045788
998.714	0.0011413
998.875	0.00132814
999.035	0.0010759
999.196	0.00101514
999.356	0.00200906
999.516	0.00319658
999.676	0.00417105
999.837	0.00343091
999.997	0.0035099
1000.157	0.00374327
1000.317	0.00481233
1000.477	0.00429807
1000.638	0.00456264
1000.798	0.00379553
1000.958	0.00396554
1001.118	0.00298774
1001.278	0.00283671
1001.438	0.00291038
1001.598	0.00296727
1001.758	0.00237517
1001.918	0.00244033
1002.078	0.00188045
1002.238	0.00245436
1002.398	0.00341875
1002.558	0.00344889
1002.718	0.00392923
1002.878	0.00446049
1003.037	0.00528576
1003.197	0.00529792
1003.357	0.00523837
1003.517	0.00451391
1003.677	0.00263069
1003.836	0.00137488
1003.996	0.00065581
1004.156	-0.00162201
1004.315	0.00001352
1004.475	0.00068865
1004.635	0.00016673
1004.794	0.00160544
1004.954	0.00222504
1005.114	0.00204764
1005.273	0.00374634
1005.433	0.00216243
1005.592	0.00049783
1005.752	0.00128941
1005.911	0.00094812
1006.071	0.00207398
1006.23	0.0022986
1006.389	0.00315018
1006.549	0.00341847
1006.708	0.00518494
1006.868	0.00433328
1007.027	0.00531708
1007.186	0.00431101
1007.345	0.00447399
1007.505	0.00439592
1007.664	0.00475737
1007.823	0.00521378
1007.982	0.00640127
1008.142	0.00587442
1008.301	0.0067646
1008.46	0.00660513
1008.619	0.00564588
1008.778	0.00630224
1008.937	0.00466097
1009.096	0.00446302
1009.255	0.00528414
1009.414	0.00447239
1009.573	0.00528714
1009.732	0.00599415
1009.891	0.0055576
1010.05	0.00620082
1010.209	0.00527214
1010.368	0.00430269
1010.527	0.00444713
1010.686	0.00310323
1010.845	0.00286091
1011.003	0.00323589
1011.162	0.00406484
1011.321	0.0038918
1011.48	0.00385212
1011.638	0.00314108
1011.797	0.00433199
1011.956	0.00337354
1012.115	0.00414351
1012.273	0.00368481
1012.432	0.00576612
1012.59	0.0061827
1012.749	0.0056223
1012.908	0.0067956
1013.066	0.00726088
1013.225	0.00662389
1013.383	0.00748778
1013.542	0.00528943
1013.7	0.00521269
1013.859	0.00713033
1014.017	0.00595064
1014.175	0.00798101
1014.334	0.0062778
1014.492	0.00501791
1014.65	0.00654075
1014.809	0.00740904
1014.967	0.00676726
1015.125	0.00793388
1015.284	0.00657551
1015.442	0.00890354
1015.6	0.00835502
1015.758	0.00868345
1015.916	0.00651821
1016.075	0.00629944
1016.233	0.00472593
1016.391	0.00545434
1016.549	0.00289413
1016.707	0.00244218
1016.865	0.00122142
1017.023	0.0037601
1017.181	0.0037455
1017.339	0.00283545
1017.497	0.00258758
1017.655	0.00490508
1017.813	0.00493709
1017.971	0.00339287
1018.129	0.0013963
1018.286	0.00208424
1018.444	0.00124739
1018.602	0.0011963
1018.76	-0.00130865
1018.918	0.00146293
1019.075	0.00424402
1019.233	0.00635613
1019.391	0.00491112
1019.549	0.00627261
1019.706	0.00562883
1019.864	0.00921481
1020.022	0.00572779
1020.179	0.00435816
1020.337	0.00070397
1020.494	0.00247522
1020.652	0.00378569
1020.809	0.00403949
1020.967	0.00271155
1021.124	0.00529635
1021.282	0.00678937
1021.439	0.00920596
1021.597	0.009767
1021.754	0.00747774
1021.911	0.00794907
1022.069	0.00878526
1022.226	0.00548181
1022.384	0.00288045
1022.541	0.00636427
1022.698	0.00520458
1022.855	0.00787714
1023.013	0.00722384
1023.17	0.0049474
1023.327	0.00635634
1023.484	0.00857817
1023.641	0.00448477
1023.798	0.00913725
1023.956	0.00717354
1024.113	0.00619986
1024.27	0.00675874
1024.427	0.00773165
1024.584	0.00493849
1024.741	0.00296406
1024.898	-0.00039956
1025.055	0.00166171
1025.212	0.004166
1025.369	0.00477007
1025.525	0.00608443
1025.682	0.00844353
1025.839	0.01251414
1025.996	0.00842445
1026.153	0.00691456
1026.31	0.00543817
1026.466	0.00373692
1026.623	0.00253501
1026.78	-0.00001039
1026.937	-0.00006161
1027.093	0.0054158
1027.25	0.00749586
1027.407	0.00888843
1027.563	0.01126435
1027.72	0.01493933
1027.876	0.01894175
1028.033	0.0180346
1028.19	0.01985093
1028.346	0.01793304
1028.503	0.02024685
1028.659	0.01942002
1028.816	0.01666152
1028.972	0.01282664
1029.128	0.01175824
1029.285	0.01019334
1029.441	0.01128236
1029.598	0.00521084
1029.754	0.00900039
1029.91	0.00589659
1030.067	0.00983598
1030.223	0.00949164
1030.379	0.00450962
1030.535	0.00759427
1030.691	0.01116404
1030.848	0.00950419
1031.004	0.01639079
1031.16	0.01642177
1031.316	0.01061895
1031.472	0.01652147
1031.628	0.01184163
1031.784	0.01025434
1031.94	0.00961677
1032.096	0.00243279
1032.252	-0.00079755
1032.408	0.00660008
1032.564	0.00861435
1032.72	0.01059509
1032.876	0.01085037
1033.032	0.00960568
1033.188	0.00977881
1033.344	0.0089517
1033.5	0.00642214
1033.655	0.00259779
1033.811	-0.00102449
1033.967	-0.00417199
