Data from 0_1_mm_pl_60pc_Absorbance__0__18-54-11-382.txt Node

Date: Wed Mar 01 18:54:11 CET 2023
User: Ange
Spectrometer: FLMT08341
Trigger mode: 0
Integration Time (sec): 1.000000E-2
Scans to average: 400
Electric dark correction enabled: true
Nonlinearity correction enabled: false
Boxcar width: 3
XAxis mode: Wavelengths
Number of Pixels in Spectrum: 3648
>>>>>Begin Spectral Data<<<<<
345.271	0.02792085
345.487	0.03042774
345.704	0.0362464
345.921	0.02935262
346.137	0.0132483
346.354	0.00035206
346.571	-0.01987443
346.787	0.02509404
347.004	-0.02679805
347.22	0.05186666
347.437	-0.10277766
347.653	-0.25032723
347.87	0.15988012
348.086	0.18658366
348.303	-0
348.519	0.02717613
348.736	0.02267896
348.952	0.01909148
349.169	0.02429193
349.385	0.0272138
349.601	0.02716497
349.818	0.02678852
350.034	0.02698122
350.251	0.02872861
350.467	0.02915455
350.683	0.02955481
350.9	0.02922294
351.116	0.02982251
351.332	0.02964022
351.549	0.03149367
351.765	0.03196911
351.981	0.03257577
352.197	0.0309839
352.414	0.03243103
352.63	0.03269371
352.846	0.0324378
353.062	0.03143337
353.278	0.03153583
353.495	0.03112046
353.711	0.03297779
353.927	0.03204046
354.143	0.03190269
354.359	0.03105108
354.575	0.02856688
354.792	0.02937803
355.008	0.03018311
355.224	0.03069967
355.44	0.03215704
355.656	0.03272194
355.872	0.03365625
356.088	0.03634318
356.304	0.03547232
356.52	0.03529728
356.736	0.03363162
356.952	0.03184578
357.168	0.0315365
357.384	0.03137558
357.6	0.03095552
357.816	0.02976157
358.032	0.02944821
358.248	0.03091234
358.464	0.03178742
358.679	0.03143955
358.895	0.03201383
359.111	0.03268736
359.327	0.03382578
359.543	0.03482283
359.759	0.03418441
359.974	0.03234036
360.19	0.03419341
360.406	0.03410573
360.622	0.03349173
360.838	0.03347045
361.053	0.03216605
361.269	0.03252926
361.485	0.03449363
361.701	0.03265316
361.916	0.03332437
362.132	0.03438405
362.348	0.03391894
362.563	0.03569687
362.779	0.03476472
362.995	0.03510719
363.21	0.03521153
363.426	0.03384422
363.641	0.033382
363.857	0.0338971
364.073	0.03272038
364.288	0.03287233
364.504	0.03283105
364.719	0.03360043
364.935	0.03370506
365.15	0.03428716
365.366	0.03429623
365.581	0.03423988
365.797	0.03459923
366.012	0.03456272
366.228	0.03353193
366.443	0.03452807
366.658	0.03397696
366.874	0.03403238
367.089	0.03514457
367.305	0.03496673
367.52	0.03481481
367.735	0.03455109
367.951	0.03374453
368.166	0.03369994
368.381	0.03463533
368.597	0.03362243
368.812	0.03403407
369.027	0.03379015
369.243	0.03411139
369.458	0.03465238
369.673	0.03534675
369.888	0.03516296
370.104	0.03510321
370.319	0.03465966
370.534	0.03400733
370.749	0.03415409
370.964	0.03391953
371.179	0.03302771
371.395	0.0316296
371.61	0.03150539
371.825	0.03237955
372.04	0.033369
372.255	0.03333106
372.47	0.03361476
372.685	0.0325947
372.9	0.03372027
373.115	0.03478354
373.33	0.03438114
373.545	0.0338094
373.76	0.0337345
373.975	0.03381209
374.19	0.03533856
374.405	0.03496422
374.62	0.03473252
374.835	0.03488255
375.05	0.03516717
375.265	0.03611713
375.48	0.03593496
375.695	0.03597481
375.91	0.03603823
376.125	0.03647559
376.339	0.03634077
376.554	0.03670766
376.769	0.03635517
376.984	0.03718482
377.199	0.03754511
377.414	0.03804251
377.628	0.03807705
377.843	0.03750887
378.058	0.03754697
378.273	0.0376509
378.487	0.03742436
378.702	0.0375469
378.917	0.0371854
379.131	0.03689606
379.346	0.03756557
379.561	0.03744386
379.775	0.03678996
379.99	0.03664337
380.205	0.03648679
380.419	0.03681641
380.634	0.03669561
380.848	0.0373148
381.063	0.03810284
381.278	0.03944094
381.492	0.03975138
381.707	0.03943329
381.921	0.0391487
382.136	0.03940785
382.35	0.03886838
382.565	0.03809757
382.779	0.03762246
382.994	0.03757213
383.208	0.03814661
383.422	0.03856757
383.637	0.0388575
383.851	0.03904974
384.066	0.03986814
384.28	0.04021388
384.494	0.04035988
384.709	0.04051908
384.923	0.0406002
385.137	0.03992266
385.352	0.0402969
385.566	0.0396446
385.78	0.03924099
385.995	0.03935149
386.209	0.03926784
386.423	0.03952835
386.637	0.04010378
386.852	0.0393404
387.066	0.03957431
387.28	0.04034283
387.494	0.04091787
387.708	0.0406961
387.923	0.04043295
388.137	0.04057063
388.351	0.04081146
388.565	0.04106786
388.779	0.04052072
388.993	0.04036054
389.207	0.04005937
389.421	0.04039797
389.635	0.04050674
389.85	0.04074684
390.064	0.04048638
390.278	0.04087037
390.492	0.04053907
390.706	0.04120726
390.92	0.04042415
391.134	0.04071034
391.348	0.04085115
391.561	0.04099823
391.775	0.04055618
391.989	0.04048291
392.203	0.04068739
392.417	0.04147
392.631	0.04110865
392.845	0.04083422
393.059	0.0409995
393.273	0.0416885
393.486	0.04178927
393.7	0.04111899
393.914	0.04103808
394.128	0.0415547
394.342	0.04223711
394.555	0.0424752
394.769	0.04206629
394.983	0.04242971
395.197	0.04305291
395.41	0.04332684
395.624	0.04319971
395.838	0.0429417
396.051	0.04313405
396.265	0.04308894
396.479	0.04309441
396.692	0.04320654
396.906	0.04323776
397.12	0.04318031
397.333	0.04343502
397.547	0.04338859
397.76	0.04394045
397.974	0.04403683
398.187	0.0438812
398.401	0.04380429
398.614	0.04401732
398.828	0.04388493
399.041	0.04385324
399.255	0.04362682
399.468	0.04319737
399.682	0.0431465
399.895	0.04334417
400.109	0.04332907
400.322	0.04332157
400.536	0.04311285
400.749	0.04308228
400.962	0.0435924
401.176	0.04382226
401.389	0.04384316
401.602	0.04352801
401.816	0.04379044
402.029	0.04401265
402.242	0.04444181
402.456	0.04434698
402.669	0.04377766
402.882	0.04353602
403.095	0.04350472
403.309	0.04368241
403.522	0.04348593
403.735	0.0430728
403.948	0.04299461
404.161	0.04364761
404.375	0.04387338
404.588	0.04398571
404.801	0.04368016
405.014	0.04381423
405.227	0.04385609
405.44	0.04392482
405.653	0.04380448
405.866	0.04362079
406.079	0.04355904
406.293	0.04342545
406.506	0.04357034
406.719	0.04353168
406.932	0.04354528
407.145	0.04347784
407.358	0.04342791
407.571	0.04358426
407.784	0.04389345
407.996	0.04383972
408.209	0.04391462
408.422	0.04400086
408.635	0.04382609
408.848	0.04364344
409.061	0.0432471
409.274	0.04306674
409.487	0.04283209
409.7	0.04280151
409.912	0.04281154
410.125	0.04270252
410.338	0.04288734
410.551	0.04305367
410.764	0.0429615
410.976	0.04300189
411.189	0.04293168
411.402	0.04230815
411.615	0.04248158
411.827	0.04257373
412.04	0.04246847
412.253	0.04230555
412.465	0.04214444
412.678	0.04201364
412.891	0.04263519
413.103	0.04241849
413.316	0.04253007
413.529	0.04252606
413.741	0.04267895
413.954	0.04248481
414.166	0.04243155
414.379	0.0422358
414.591	0.04230325
414.804	0.04189567
415.016	0.04183161
415.229	0.04175766
415.441	0.04181216
415.654	0.04189465
415.866	0.04173114
416.079	0.04197426
416.291	0.04211157
416.504	0.04215736
416.716	0.04212004
416.928	0.04209934
417.141	0.04196955
417.353	0.04173056
417.566	0.04131594
417.778	0.04120863
417.99	0.04113787
418.203	0.04096016
418.415	0.04094261
418.627	0.04088873
418.839	0.04108578
419.052	0.04101298
419.264	0.0410226
419.476	0.04084791
419.688	0.04083815
419.901	0.04069692
420.113	0.04060381
420.325	0.0403389
420.537	0.04009112
420.749	0.03993917
420.961	0.04014066
421.174	0.03985916
421.386	0.03949733
421.598	0.03922884
421.81	0.03921129
422.022	0.03939642
422.234	0.03926869
422.446	0.03889765
422.658	0.03897332
422.87	0.03930902
423.082	0.0391382
423.294	0.03895258
423.506	0.03882866
423.718	0.0388313
423.93	0.03876925
424.142	0.03848268
424.354	0.03817107
424.566	0.03819392
424.778	0.03824198
424.99	0.03797397
425.202	0.03741304
425.414	0.03718227
425.625	0.0372076
425.837	0.0371084
426.049	0.03700326
426.261	0.03674955
426.473	0.0365284
426.684	0.03665332
426.896	0.03665157
427.108	0.0364751
427.32	0.03641661
427.531	0.03615487
427.743	0.03587103
427.955	0.035886
428.167	0.03575491
428.378	0.03534807
428.59	0.03519161
428.802	0.03489335
429.013	0.03483924
429.225	0.03489903
429.436	0.03477052
429.648	0.03461966
429.86	0.03480295
430.071	0.03465785
430.283	0.03455848
430.494	0.03459854
430.706	0.03435763
430.917	0.03396063
431.129	0.03363183
431.34	0.03326503
431.552	0.03309981
431.763	0.03312673
431.975	0.03283282
432.186	0.03264629
432.398	0.03274105
432.609	0.03269418
432.821	0.03281871
433.032	0.03269024
433.243	0.03243562
433.455	0.03235435
433.666	0.03219062
433.877	0.03212482
434.089	0.03194708
434.3	0.03177276
434.511	0.03164888
434.723	0.0315398
434.934	0.031325
435.145	0.03134338
435.356	0.03119975
435.568	0.03109518
435.779	0.03094173
435.99	0.03066742
436.201	0.0303858
436.412	0.03017795
436.624	0.03007307
436.835	0.02985378
437.046	0.02987686
437.257	0.02954767
437.468	0.02951253
437.679	0.02943471
437.89	0.02917902
438.101	0.02891075
438.312	0.0286809
438.523	0.0282588
438.734	0.02812076
438.945	0.02788621
439.156	0.02763676
439.367	0.02757012
439.578	0.02720471
439.789	0.02696281
440	0.0268935
440.211	0.02682731
440.422	0.02660995
440.633	0.02644603
440.844	0.02633603
441.055	0.02640253
441.266	0.02623797
441.477	0.02612349
441.687	0.02591192
441.898	0.02589609
442.109	0.02592777
442.32	0.02581093
442.531	0.02571425
442.741	0.02556709
442.952	0.0252725
443.163	0.02509848
443.374	0.0249367
443.584	0.02472604
443.795	0.02443503
444.006	0.02412212
444.216	0.02403114
444.427	0.02385715
444.638	0.02356969
444.848	0.02338254
445.059	0.02322508
445.27	0.02292102
445.48	0.0226662
445.691	0.0225714
445.901	0.02270352
446.112	0.02263458
446.323	0.02253683
446.533	0.02232899
446.744	0.02241045
446.954	0.02237363
447.165	0.02212071
447.375	0.02181757
447.586	0.02158375
447.796	0.0213801
448.006	0.02120529
448.217	0.02109024
448.427	0.02093154
448.638	0.02077453
448.848	0.02046947
449.058	0.02045192
449.269	0.02029641
449.479	0.02012832
449.689	0.01982829
449.9	0.01970189
450.11	0.01956621
450.32	0.0196196
450.531	0.01941694
450.741	0.0192335
450.951	0.01908234
451.161	0.01903211
451.372	0.01894757
451.582	0.0189013
451.792	0.01874735
452.002	0.01862048
452.212	0.01852997
452.422	0.01827908
452.633	0.01809852
452.843	0.01787926
453.053	0.0176166
453.263	0.01735925
453.473	0.01724567
453.683	0.01706474
453.893	0.01698359
454.103	0.01683417
454.313	0.01680492
454.523	0.01673038
454.733	0.0166789
454.943	0.01661626
455.153	0.01641712
455.363	0.01629949
455.573	0.01616327
455.783	0.01585427
455.993	0.01572697
456.203	0.01545166
456.413	0.01516588
456.623	0.01511651
456.833	0.01498584
457.042	0.01486621
457.252	0.0148445
457.462	0.01476982
457.672	0.01473101
457.882	0.01455634
458.091	0.01435848
458.301	0.01424886
458.511	0.01412938
458.721	0.01406783
458.931	0.01375049
459.14	0.01359801
459.35	0.01354824
459.56	0.01347249
459.769	0.01325087
459.979	0.0131217
460.189	0.01293675
460.398	0.01303298
460.608	0.01290604
460.817	0.01289595
461.027	0.0128226
461.237	0.01278528
461.446	0.01268565
461.656	0.01259035
461.865	0.01236919
462.075	0.01222706
462.284	0.01210295
462.494	0.01196401
462.703	0.01203611
462.913	0.01192603
463.122	0.01173405
463.332	0.0117139
463.541	0.01168538
463.751	0.01159948
463.96	0.01150424
464.169	0.01134164
464.379	0.01129075
464.588	0.01129275
464.797	0.01119112
465.007	0.01115575
465.216	0.01103587
465.425	0.01099809
465.635	0.01095437
465.844	0.01088208
466.053	0.01080041
466.263	0.01059327
466.472	0.01043862
466.681	0.01031295
466.89	0.01024363
467.099	0.01009719
467.309	0.00991976
467.518	0.00978622
467.727	0.00983645
467.936	0.00974195
468.145	0.00971865
468.354	0.00959191
468.563	0.00942859
468.772	0.00954796
468.982	0.00953775
469.191	0.00948881
469.4	0.00952141
469.609	0.0094224
469.818	0.00937404
470.027	0.00940314
470.236	0.00919817
470.445	0.00911046
470.654	0.00900083
470.863	0.00890244
471.072	0.0088613
471.28	0.00879814
471.489	0.00870661
471.698	0.00867559
471.907	0.00861702
472.116	0.00856259
472.325	0.00847637
472.534	0.00845431
472.743	0.00842395
472.951	0.00847647
473.16	0.0083888
473.369	0.00841246
473.578	0.00838046
473.786	0.00835227
473.995	0.00823222
474.204	0.0081095
474.413	0.00803026
474.621	0.00806044
474.83	0.00797192
475.039	0.00789387
475.247	0.00793372
475.456	0.00801566
475.665	0.00795847
475.873	0.00787937
476.082	0.00780867
476.291	0.00769897
476.499	0.00765362
476.708	0.00753576
476.916	0.00744957
477.125	0.00748167
477.333	0.00746308
477.542	0.00742787
477.75	0.00737078
477.959	0.00737503
478.167	0.00736559
478.376	0.00727884
478.584	0.00723428
478.793	0.00715485
479.001	0.00713277
479.209	0.00713449
479.418	0.00711734
479.626	0.0070855
479.834	0.00707148
480.043	0.00698932
480.251	0.00696117
480.459	0.00693039
480.668	0.00686856
480.876	0.00681326
481.084	0.00679422
481.293	0.00680649
481.501	0.00684636
481.709	0.00689884
481.917	0.00687838
482.125	0.00693386
482.334	0.00693584
482.542	0.00694282
482.75	0.00692211
482.958	0.00689964
483.166	0.00690332
483.374	0.00694917
483.583	0.00696905
483.791	0.00691912
483.999	0.00686915
484.207	0.00679196
484.415	0.00671386
484.623	0.00666187
484.831	0.0065717
485.039	0.00656025
485.247	0.00657041
485.455	0.00654856
485.663	0.00659848
485.871	0.00665856
486.079	0.00659858
486.287	0.0066276
486.495	0.00665095
486.702	0.00665354
486.91	0.00670384
487.118	0.00669983
487.326	0.00669738
487.534	0.00666658
487.742	0.00669958
487.95	0.00658709
488.157	0.00657545
488.365	0.00653698
488.573	0.00655532
488.781	0.0066034
488.988	0.00669763
489.196	0.00661293
489.404	0.00669586
489.612	0.006721
489.819	0.00671823
490.027	0.00679352
490.235	0.00677331
490.442	0.00681054
490.65	0.00684558
490.857	0.00681163
491.065	0.00682535
491.273	0.00688759
491.48	0.00686923
491.688	0.0068439
491.895	0.00678315
492.103	0.00680664
492.31	0.00684426
492.518	0.00684021
492.725	0.00679594
492.933	0.00676639
493.14	0.00675981
493.348	0.00676202
493.555	0.00670995
493.763	0.0066977
493.97	0.00673618
494.177	0.00676634
494.385	0.00672805
494.592	0.00679533
494.8	0.00683222
495.007	0.00690617
495.214	0.00693401
495.422	0.00689921
495.629	0.00697117
495.836	0.00701032
496.043	0.00699582
496.251	0.00700024
496.458	0.00703326
496.665	0.00705283
496.872	0.00708699
497.08	0.00708661
497.287	0.00713835
497.494	0.00712268
497.701	0.00716201
497.908	0.00716009
498.115	0.00718007
498.322	0.00723305
498.53	0.00723498
498.737	0.00725775
498.944	0.00733495
499.151	0.00735394
499.358	0.00737876
499.565	0.00741397
499.772	0.0074129
499.979	0.00743253
500.186	0.00743528
500.393	0.00744385
500.6	0.00752304
500.807	0.00754358
501.014	0.00757183
501.221	0.00762251
501.427	0.00769684
501.634	0.00772494
501.841	0.00779434
502.048	0.00774462
502.255	0.00782081
502.462	0.00783783
502.669	0.00790219
502.875	0.00789024
503.082	0.00791056
503.289	0.00791616
503.496	0.00798964
503.702	0.007974
503.909	0.008034
504.116	0.00801354
504.323	0.00805597
504.529	0.00813508
504.736	0.00816768
504.943	0.00821874
505.149	0.00826394
505.356	0.00830488
505.563	0.00835452
505.769	0.00840115
505.976	0.00844072
506.182	0.00851022
506.389	0.00849638
506.595	0.00854213
506.802	0.008526
507.008	0.00858078
507.215	0.00858432
507.421	0.00863874
507.628	0.0086575
507.834	0.00874394
508.041	0.00877932
508.247	0.00887734
508.454	0.00894103
508.66	0.00898508
508.866	0.00904225
509.073	0.00911065
509.279	0.00918434
509.486	0.00923351
509.692	0.00924836
509.898	0.00929968
510.105	0.00936672
510.311	0.00937915
510.517	0.00944078
510.723	0.00947744
510.93	0.0095798
511.136	0.00964359
511.342	0.00969022
511.548	0.009751
511.754	0.00980987
511.961	0.00984488
512.167	0.00988419
512.373	0.00993942
512.579	0.01000444
512.785	0.01006528
512.991	0.01009082
513.197	0.01014844
513.404	0.01019079
513.61	0.01025899
513.816	0.01031499
514.022	0.01039499
514.228	0.01042526
514.434	0.01049233
514.64	0.01056407
514.846	0.01063333
515.052	0.01067192
515.258	0.01068595
515.464	0.01069356
515.669	0.01074148
515.875	0.01082209
516.081	0.0108743
516.287	0.01092543
516.493	0.01098351
516.699	0.01103282
516.905	0.01109473
517.111	0.01115058
517.316	0.01120797
517.522	0.01127181
517.728	0.01137628
517.934	0.011467
518.139	0.01159099
518.345	0.01165263
518.551	0.01172659
518.757	0.01180528
518.962	0.01186312
519.168	0.01192643
519.374	0.0119501
519.579	0.01196236
519.785	0.01202617
519.991	0.01211487
520.196	0.01216745
520.402	0.01220047
520.607	0.01220827
520.813	0.01231056
521.018	0.01238697
521.224	0.01247523
521.429	0.01254567
521.635	0.01265087
521.84	0.01273502
522.046	0.0128061
522.251	0.01289372
522.457	0.01300318
522.662	0.01308179
522.868	0.01312792
523.073	0.01318462
523.279	0.0132972
523.484	0.01341894
523.689	0.01346461
523.895	0.01351961
524.1	0.0136527
524.305	0.0137232
524.511	0.01376897
524.716	0.01380765
524.921	0.01382526
525.126	0.013901
525.332	0.01393431
525.537	0.01394529
525.742	0.01401643
525.947	0.0141206
526.153	0.01422163
526.358	0.01430067
526.563	0.01439105
526.768	0.01449653
526.973	0.01460894
527.178	0.01468598
527.383	0.01473077
527.588	0.01479864
527.794	0.01484813
527.999	0.01490318
528.204	0.01506876
528.409	0.01516259
528.614	0.01527063
528.819	0.01538526
529.024	0.01545901
529.229	0.01557261
529.434	0.01564688
529.639	0.01565683
529.843	0.01570634
530.048	0.01582797
530.253	0.01591524
530.458	0.01603829
530.663	0.01616116
530.868	0.01627344
531.073	0.01634422
531.278	0.01642154
531.482	0.01644386
531.687	0.01652028
531.892	0.0165819
532.097	0.01664727
532.302	0.01671759
532.506	0.01682604
532.711	0.01693849
532.916	0.01701151
533.12	0.01712769
533.325	0.01725065
533.53	0.01737255
533.734	0.01747357
533.939	0.01759691
534.144	0.01769664
534.348	0.01786355
534.553	0.01791915
534.757	0.01797364
534.962	0.01806126
535.167	0.01815311
535.371	0.01823438
535.576	0.01833593
535.78	0.018429
535.985	0.01854024
536.189	0.01866755
536.394	0.01876285
536.598	0.01888353
536.803	0.01897443
537.007	0.01902847
537.211	0.01911627
537.416	0.01919744
537.62	0.01925827
537.825	0.01937526
538.029	0.01944543
538.233	0.0194921
538.438	0.01960907
538.642	0.01967805
538.846	0.01980028
539.05	0.01989257
539.255	0.01994816
539.459	0.02006265
539.663	0.02023965
539.867	0.02031062
540.072	0.02044629
540.276	0.02051783
540.48	0.02063531
540.684	0.02077144
540.888	0.02090686
541.092	0.02098988
541.297	0.02109973
541.501	0.02117394
541.705	0.02131028
541.909	0.0214169
542.113	0.02154546
542.317	0.02164194
542.521	0.02173504
542.725	0.02189613
542.929	0.02203413
543.133	0.02216107
543.337	0.02230099
543.541	0.02237683
543.745	0.02250149
543.949	0.02266592
544.153	0.02275803
544.357	0.02283937
544.56	0.02293579
544.764	0.02300408
544.968	0.02314537
545.172	0.0232525
545.376	0.02337424
545.58	0.02350173
545.783	0.02364688
545.987	0.02378143
546.191	0.02393791
546.395	0.02405308
546.598	0.02414719
546.802	0.02424124
547.006	0.02438237
547.21	0.02451724
547.413	0.02460966
547.617	0.02476403
547.821	0.02488646
548.024	0.02503469
548.228	0.0251373
548.431	0.02528412
548.635	0.02546433
548.839	0.02566235
549.042	0.02575971
549.246	0.02587703
549.449	0.02603806
549.653	0.02617755
549.856	0.02624068
550.06	0.02633529
550.263	0.02639834
550.467	0.02653275
550.67	0.02665085
550.874	0.0267283
551.077	0.02684895
551.28	0.02702313
551.484	0.02713632
551.687	0.02727305
551.891	0.02742742
552.094	0.02755597
552.297	0.02775108
552.501	0.027889
552.704	0.02800751
552.907	0.02810583
553.11	0.02823229
553.314	0.02834637
553.517	0.02847861
553.72	0.02852812
553.923	0.02867331
554.127	0.02875857
554.33	0.02888671
554.533	0.02901478
554.736	0.02911772
554.939	0.02929851
555.142	0.02945924
555.345	0.02958998
555.549	0.02975352
555.752	0.02991363
555.955	0.03004849
556.158	0.03020498
556.361	0.03030317
556.564	0.03043671
556.767	0.03055303
556.97	0.03066838
557.173	0.0307958
557.376	0.03096707
557.579	0.03106897
557.782	0.03120001
557.984	0.03132657
558.187	0.031463
558.39	0.0316282
558.593	0.03175795
558.796	0.0319066
558.999	0.03206549
559.202	0.03222801
559.404	0.03235484
559.607	0.03247767
559.81	0.03262943
560.013	0.03277455
560.216	0.03288983
560.418	0.03302684
560.621	0.03316915
560.824	0.03334367
561.026	0.03352021
561.229	0.03363892
561.432	0.03384601
561.634	0.03402711
561.837	0.03419131
562.04	0.03435049
562.242	0.03451229
562.445	0.03469923
562.647	0.03490248
562.85	0.03496511
563.053	0.03511099
563.255	0.03524354
563.458	0.0353912
563.66	0.03556162
563.863	0.03569957
564.065	0.0358256
564.268	0.03602238
564.47	0.03613248
564.672	0.03631666
564.875	0.03645256
565.077	0.03659012
565.28	0.03675055
565.482	0.03692411
565.684	0.0370819
565.887	0.03726135
566.089	0.03745385
566.291	0.03760257
566.494	0.03771612
566.696	0.0378582
566.898	0.03801164
567.1	0.03811322
567.303	0.03823875
567.505	0.03834521
567.707	0.03848971
567.909	0.03867067
568.111	0.03881169
568.314	0.03896045
568.516	0.03918194
568.718	0.03935565
568.92	0.03950105
569.122	0.03961794
569.324	0.03978816
569.526	0.03990248
569.728	0.04003541
569.93	0.04016368
570.132	0.04034053
570.334	0.04051542
570.536	0.0407144
570.738	0.04088183
570.94	0.04106891
571.142	0.04123171
571.344	0.04138346
571.546	0.04148956
571.748	0.04161601
571.95	0.04179232
572.152	0.04190423
572.354	0.04204292
572.555	0.04219245
572.757	0.04239325
572.959	0.04252267
573.161	0.04272762
573.363	0.04288179
573.564	0.04310277
573.766	0.04328999
573.968	0.0434798
574.17	0.04358657
574.371	0.04377346
574.573	0.04390759
574.775	0.04406579
574.976	0.04416769
575.178	0.0443113
575.38	0.04444045
575.581	0.04461426
575.783	0.04476952
575.985	0.04492171
576.186	0.04506794
576.388	0.04521173
576.589	0.04536756
576.791	0.04553028
576.992	0.04568858
577.194	0.04586028
577.395	0.04603983
577.597	0.0461977
577.798	0.04640247
578	0.04654772
578.201	0.04670862
578.402	0.04688246
578.604	0.04704425
578.805	0.04717033
579.007	0.04734638
579.208	0.04749375
579.409	0.04766817
579.611	0.04785578
579.812	0.04805022
580.013	0.0482446
580.215	0.04843279
580.416	0.04855604
580.617	0.04870298
580.818	0.04882094
581.019	0.04896407
581.221	0.04905182
581.422	0.04917897
581.623	0.0493077
581.824	0.04945564
582.025	0.04961906
582.226	0.04978477
582.428	0.04993627
582.629	0.05013227
582.83	0.05030214
583.031	0.05046468
583.232	0.05064478
583.433	0.05080888
583.634	0.05099609
583.835	0.05112893
584.036	0.0512496
584.237	0.051367
584.438	0.05152539
584.639	0.05170445
584.84	0.05190785
585.041	0.05207184
585.242	0.05222951
585.442	0.05238463
585.643	0.0525763
585.844	0.05277887
586.045	0.05292926
586.246	0.05303375
586.447	0.05319666
586.647	0.05335964
586.848	0.05352206
587.049	0.05368376
587.25	0.05375567
587.45	0.05391537
587.651	0.05406421
587.852	0.0541679
588.053	0.0543671
588.253	0.05450077
588.454	0.05464067
588.655	0.05481564
588.855	0.05496534
589.056	0.05512186
589.256	0.0553231
589.457	0.05541455
589.658	0.05557362
589.858	0.05575569
590.059	0.05592443
590.259	0.05608513
590.46	0.05623915
590.66	0.05633585
590.861	0.05652262
591.061	0.05670158
591.262	0.05683522
591.462	0.05699941
591.662	0.05714702
591.863	0.05725972
592.063	0.05745184
592.264	0.05757701
592.464	0.0577146
592.664	0.05788569
592.865	0.0580496
593.065	0.05817598
593.265	0.05834471
593.465	0.0584963
593.666	0.05864997
593.866	0.05879678
594.066	0.0589382
594.266	0.05903853
594.467	0.05921632
594.667	0.05936976
594.867	0.05951261
595.067	0.05964542
595.267	0.059778
595.467	0.05992381
595.668	0.06007814
595.868	0.06020462
596.068	0.06033774
596.268	0.06047243
596.468	0.06064288
596.668	0.06075319
596.868	0.06086637
597.068	0.06100956
597.268	0.06114827
597.468	0.06127548
597.668	0.06143356
597.868	0.06158669
598.068	0.06178941
598.268	0.06191322
598.467	0.06207779
598.667	0.06219072
598.867	0.06233022
599.067	0.06247503
599.267	0.06255731
599.467	0.06263031
599.667	0.06276407
599.866	0.06286019
600.066	0.0630212
600.266	0.06313781
600.466	0.06326008
600.665	0.06342032
600.865	0.06360398
601.065	0.06375552
601.264	0.06385096
601.464	0.06394144
601.664	0.06411188
601.863	0.06420563
602.063	0.06433034
602.263	0.06438308
602.462	0.06450572
602.662	0.06468936
602.861	0.06483392
603.061	0.06495066
603.26	0.06511329
603.46	0.06518818
603.659	0.06537316
603.859	0.06545678
604.058	0.06553984
604.258	0.06563961
604.457	0.06575503
604.657	0.06580301
604.856	0.06594208
605.056	0.06601987
605.255	0.06614923
605.454	0.06626752
605.654	0.06639745
605.853	0.06648385
606.052	0.06664007
606.252	0.06677669
606.451	0.06693189
606.65	0.06708067
606.849	0.06717052
607.049	0.06727216
607.248	0.06741873
607.447	0.06749285
607.646	0.06760083
607.845	0.06770972
608.045	0.0677332
608.244	0.06789046
608.443	0.06800467
608.642	0.06813222
608.841	0.06826222
609.04	0.06829843
609.239	0.06839917
609.438	0.0685034
609.637	0.06862048
609.836	0.06875218
610.035	0.06883179
610.234	0.06895873
610.433	0.06910751
610.632	0.06920699
610.831	0.06935895
611.03	0.06939672
611.229	0.06951306
611.428	0.06961321
611.627	0.06970497
611.826	0.06983902
612.025	0.06998407
612.224	0.07011666
612.422	0.07025928
612.621	0.07034202
612.82	0.07043658
613.019	0.07053566
613.218	0.07061192
613.416	0.07064395
613.615	0.07072417
613.814	0.07086341
614.012	0.07095051
614.211	0.07102351
614.41	0.07120926
614.608	0.07130446
614.807	0.07139133
615.006	0.07150569
615.204	0.07157765
615.403	0.07169369
615.602	0.07181598
615.8	0.07184849
615.999	0.07192588
616.197	0.07202109
616.396	0.07212619
616.594	0.07219489
616.793	0.07229136
616.991	0.07235046
617.19	0.07242801
617.388	0.07258115
617.586	0.07271017
617.785	0.0727782
617.983	0.07287639
618.182	0.0729367
618.38	0.07303427
618.578	0.07315847
618.777	0.07321438
618.975	0.07332399
619.173	0.07343354
619.372	0.07353667
619.57	0.07359215
619.768	0.07371682
619.966	0.07378583
620.165	0.07385346
620.363	0.07391677
620.561	0.07394066
620.759	0.07400154
620.957	0.07412867
621.155	0.07418742
621.354	0.07421361
621.552	0.0743421
621.75	0.07441891
621.948	0.07455978
622.146	0.07464297
622.344	0.07474671
622.542	0.07486126
622.74	0.07497684
622.938	0.0749892
623.136	0.07508603
623.334	0.07518307
623.532	0.07520985
623.73	0.07520209
623.928	0.07527234
624.126	0.07536619
624.324	0.0754554
624.522	0.07545959
624.719	0.07547941
624.917	0.07564112
625.115	0.07572075
625.313	0.07577808
625.511	0.0758368
625.708	0.07589329
625.906	0.07595797
626.104	0.07599976
626.302	0.07605902
626.499	0.07617581
626.697	0.07624523
626.895	0.07629515
627.093	0.07638232
627.29	0.07653203
627.488	0.07667536
627.686	0.07669951
627.883	0.07674176
628.081	0.07675227
628.278	0.07689735
628.476	0.0769263
628.673	0.07697663
628.871	0.07704264
629.068	0.07715955
629.266	0.07721825
629.463	0.07729973
629.661	0.07732725
629.858	0.0773862
630.056	0.07741916
630.253	0.07743643
630.451	0.07745152
630.648	0.07750937
630.845	0.07757523
631.043	0.07760351
631.24	0.07774406
631.438	0.07780115
631.635	0.07785261
631.832	0.07790451
632.029	0.07797217
632.227	0.07802212
632.424	0.07806208
632.621	0.07804703
632.818	0.07810725
633.016	0.07817739
633.213	0.07821031
633.41	0.07830263
633.607	0.0783721
633.804	0.07844614
634.001	0.07851311
634.199	0.0786279
634.396	0.07869911
634.593	0.07874738
634.79	0.07878794
634.987	0.07887085
635.184	0.07892542
635.381	0.07903762
635.578	0.0790671
635.775	0.07908653
635.972	0.07916888
636.169	0.07919558
636.366	0.07920525
636.563	0.07923677
636.76	0.07921506
636.957	0.07924567
637.153	0.07927685
637.35	0.07934361
637.547	0.07941378
637.744	0.07946804
637.941	0.07954421
638.138	0.07962842
638.334	0.07964834
638.531	0.07972799
638.728	0.07974199
638.925	0.07983173
639.121	0.07987942
639.318	0.07989428
639.515	0.07994155
639.711	0.08002064
639.908	0.08001053
640.105	0.08009217
640.301	0.08005498
640.498	0.08007056
640.695	0.08015082
640.891	0.08015773
641.088	0.08019623
641.284	0.08028306
641.481	0.08028346
641.677	0.08033446
641.874	0.08040046
642.07	0.08044512
642.267	0.08054799
642.463	0.08056788
642.66	0.08058685
642.856	0.08060486
643.053	0.08063692
643.249	0.08066292
643.445	0.08069647
643.642	0.08068154
643.838	0.0807275
644.034	0.08081064
644.231	0.08090456
644.427	0.08097918
644.623	0.08101558
644.82	0.08107295
645.016	0.08111263
645.212	0.08109482
645.408	0.08107469
645.604	0.08111875
645.801	0.08115002
645.997	0.08118039
646.193	0.08115647
646.389	0.08123234
646.585	0.08130966
646.781	0.08139665
646.977	0.0814078
647.173	0.08140842
647.37	0.0814106
647.566	0.08145746
647.762	0.0814757
647.958	0.08155621
648.154	0.08154677
648.35	0.08157222
648.546	0.0816332
648.742	0.08176674
648.937	0.08176507
649.133	0.08177227
649.329	0.08177451
649.525	0.08182595
649.721	0.08186913
649.917	0.08192521
650.113	0.08188059
650.309	0.08197351
650.504	0.0820081
650.7	0.08202528
650.896	0.08211619
651.092	0.08213668
651.287	0.08214737
651.483	0.08224034
651.679	0.08224512
651.875	0.0823167
652.07	0.0823579
652.266	0.08238988
652.462	0.08241064
652.657	0.08243803
652.853	0.08242241
653.048	0.08243119
653.244	0.08240859
653.44	0.08240188
653.635	0.0823066
653.831	0.08240268
654.026	0.08245219
654.222	0.08250933
654.417	0.08258504
654.613	0.08265811
654.808	0.08270787
655.004	0.08283907
655.199	0.08283678
655.394	0.08283031
655.59	0.08290028
655.785	0.08291259
655.98	0.08291977
656.176	0.08293753
656.371	0.08295634
656.566	0.08298113
656.762	0.0829968
656.957	0.08301135
657.152	0.08300027
657.348	0.08303859
657.543	0.08310552
657.738	0.08313656
657.933	0.08312967
658.128	0.0831617
658.324	0.08313355
658.519	0.08318224
658.714	0.08322229
658.909	0.08327462
659.104	0.08329797
659.299	0.08335574
659.494	0.08336216
659.689	0.08340308
659.884	0.08346293
660.079	0.08347018
660.274	0.0834555
660.469	0.08350921
660.664	0.08355008
660.859	0.08357924
661.054	0.08361222
661.249	0.08361284
661.444	0.08361828
661.639	0.08362802
661.834	0.08360807
662.029	0.08363814
662.224	0.0837443
662.418	0.08379718
662.613	0.08380886
662.808	0.08387867
663.003	0.08394302
663.198	0.08398656
663.392	0.08397398
663.587	0.08405641
663.782	0.08408768
663.977	0.08413808
664.171	0.08414966
664.366	0.08416819
664.561	0.08418879
664.755	0.08423931
664.95	0.08415434
665.144	0.08412347
665.339	0.08416692
665.534	0.0842373
665.728	0.08430662
665.923	0.08437285
666.117	0.08441297
666.312	0.08446774
666.506	0.08455652
666.701	0.08458553
666.895	0.08460216
667.09	0.0845978
667.284	0.08463185
667.479	0.08466109
667.673	0.08467963
667.867	0.08473451
668.062	0.08477458
668.256	0.08478386
668.45	0.08485517
668.645	0.08481743
668.839	0.0848682
669.033	0.08489928
669.228	0.08489163
669.422	0.08493837
669.616	0.08493596
669.81	0.08494987
670.004	0.0850492
670.199	0.08505072
670.393	0.08508604
670.587	0.08514597
670.781	0.08513198
670.975	0.08523598
671.169	0.08522685
671.363	0.08521361
671.558	0.08527886
671.752	0.08533645
671.946	0.08534858
672.14	0.08541328
672.334	0.08539681
672.528	0.08549505
672.722	0.08553653
672.916	0.08556163
673.11	0.08557076
673.304	0.08566802
673.497	0.08569421
673.691	0.08578166
673.885	0.08576264
674.079	0.08583618
674.273	0.08584535
674.467	0.0859262
674.661	0.08594532
674.854	0.08598408
675.048	0.08603492
675.242	0.08610633
675.436	0.08613682
675.629	0.08618373
675.823	0.08619937
676.017	0.08622774
676.211	0.08626745
676.404	0.08626821
676.598	0.08629271
676.792	0.08631526
676.985	0.0863885
677.179	0.08645976
677.372	0.08649839
677.566	0.08656139
677.76	0.08662943
677.953	0.08667049
678.147	0.08677565
678.34	0.08685746
678.534	0.08684485
678.727	0.08688601
678.921	0.08698023
679.114	0.08699372
679.307	0.08708817
679.501	0.08709852
679.694	0.08713729
679.888	0.08718922
680.081	0.08725679
680.274	0.08724972
680.468	0.08731796
680.661	0.08730499
680.854	0.08740124
681.048	0.08742629
681.241	0.0874949
681.434	0.08749368
681.627	0.08755695
681.821	0.08765576
682.014	0.08777743
682.207	0.08775435
682.4	0.08776641
682.593	0.08785252
682.786	0.0878867
682.98	0.08790196
683.173	0.08789052
683.366	0.08793448
683.559	0.08797584
683.752	0.08802211
683.945	0.08806621
684.138	0.08820164
684.331	0.08822941
684.524	0.08832193
684.717	0.08831745
684.91	0.08844369
685.103	0.08850048
685.296	0.08857634
685.489	0.0885811
685.682	0.08867769
685.874	0.08869182
686.067	0.08876069
686.26	0.08877752
686.453	0.08885312
686.646	0.08887429
686.839	0.08894382
687.031	0.08899638
687.224	0.08902221
687.417	0.08913141
687.61	0.08917582
687.802	0.08926403
687.995	0.08931361
688.188	0.08935471
688.38	0.08939352
688.573	0.08949766
688.766	0.089526
688.958	0.08953759
689.151	0.08954382
689.343	0.08962132
689.536	0.08968439
689.729	0.08978245
689.921	0.08985608
690.114	0.08986274
690.306	0.08994527
690.499	0.09002261
690.691	0.09003964
690.884	0.0901097
691.076	0.09017064
691.268	0.09020012
691.461	0.09026935
691.653	0.09032455
691.846	0.09039541
692.038	0.09051388
692.23	0.09056775
692.423	0.09061978
692.615	0.09069161
692.807	0.09075388
692.999	0.09086128
693.192	0.0909107
693.384	0.0909719
693.576	0.09100741
693.768	0.09107659
693.961	0.09111594
694.153	0.09122578
694.345	0.0912943
694.537	0.09132392
694.729	0.09134208
694.921	0.0914082
695.113	0.0914254
695.305	0.09148198
695.498	0.09147701
695.69	0.0915264
695.882	0.09161503
696.074	0.09171056
696.266	0.09180019
696.458	0.0919232
696.65	0.09198978
696.842	0.09209732
697.033	0.09212459
697.225	0.09220084
697.417	0.0922733
697.609	0.09235859
697.801	0.09242646
697.993	0.09257248
698.185	0.09263454
698.376	0.0927537
698.568	0.09278799
698.76	0.09285923
698.952	0.09285103
699.144	0.09284815
699.335	0.0929017
699.527	0.0929305
699.719	0.09299479
699.91	0.09312416
700.102	0.09315129
700.294	0.09325659
700.485	0.09336767
700.677	0.09339958
700.869	0.09352378
701.06	0.09362525
701.252	0.09367317
701.443	0.09376368
701.635	0.09385785
701.826	0.09396185
702.018	0.09406212
702.209	0.09412043
702.401	0.09408666
702.592	0.09414378
702.784	0.09418171
702.975	0.0942649
703.166	0.09432162
703.358	0.09435368
703.549	0.09446391
703.741	0.09461602
703.932	0.09469191
704.123	0.09478874
704.315	0.09486878
704.506	0.09495397
704.697	0.09503918
704.888	0.09511588
705.08	0.09517633
705.271	0.09528499
705.462	0.09531556
705.653	0.09536509
705.844	0.09539206
706.035	0.09548789
706.227	0.09554119
706.418	0.09558608
706.609	0.09566348
706.8	0.09581575
706.991	0.09588469
707.182	0.09597667
707.373	0.09598026
707.564	0.09605278
707.755	0.09611344
707.946	0.0961326
708.137	0.09614981
708.328	0.09620637
708.519	0.09628779
708.71	0.09637979
708.901	0.09641649
709.092	0.09651574
709.283	0.09658208
709.473	0.09669414
709.664	0.09679217
709.855	0.09682476
710.046	0.09694917
710.237	0.0970747
710.427	0.09718321
710.618	0.0973305
710.809	0.09738705
711	0.0974655
711.19	0.09752913
711.381	0.09759259
711.572	0.09762226
711.762	0.09770878
711.953	0.09775763
712.144	0.09782477
712.334	0.09791368
712.525	0.09802966
712.715	0.09813339
712.906	0.0981848
713.097	0.09822427
713.287	0.09826273
713.478	0.09835024
713.668	0.09839785
713.859	0.09850341
714.049	0.09853667
714.239	0.09871554
714.43	0.09880461
714.62	0.09890511
714.811	0.09901185
715.001	0.09912912
715.191	0.09918997
715.382	0.09926715
715.572	0.09928428
715.762	0.09939129
715.953	0.09946425
716.143	0.09948773
716.333	0.09952056
716.523	0.09957697
716.714	0.0996833
716.904	0.09977887
717.094	0.09981067
717.284	0.09992526
717.474	0.10003231
717.664	0.10018942
717.855	0.10028839
718.045	0.10036151
718.235	0.10043906
718.425	0.10055658
718.615	0.10059361
718.805	0.10075403
718.995	0.10080862
719.185	0.10096558
719.375	0.10105012
719.565	0.10114503
719.755	0.10119037
719.945	0.10131258
720.135	0.10134612
720.325	0.10145592
720.515	0.10152171
720.704	0.10161163
720.894	0.1017499
721.084	0.10189495
721.274	0.10205895
721.464	0.10220154
721.654	0.10225681
721.843	0.10230073
722.033	0.10239076
722.223	0.10242516
722.413	0.10252001
722.602	0.10258202
722.792	0.1026553
722.982	0.10276084
723.171	0.10287841
723.361	0.10295909
723.55	0.10305109
723.74	0.10312353
723.93	0.10316604
724.119	0.10319399
724.309	0.10325222
724.498	0.10329926
724.688	0.10338085
724.877	0.10347021
725.067	0.10353401
725.256	0.10357099
725.446	0.10368656
725.635	0.10376574
725.825	0.10382018
726.014	0.10389683
726.203	0.10393271
726.393	0.10401537
726.582	0.10415992
726.771	0.10421936
726.961	0.10426285
727.15	0.10435671
727.339	0.10442369
727.529	0.10452133
727.718	0.10454282
727.907	0.1045621
728.096	0.10457472
728.286	0.10463288
728.475	0.10470306
728.664	0.10477996
728.853	0.10484305
729.042	0.10493361
729.231	0.10499152
729.42	0.10507972
729.609	0.10511355
729.799	0.105173
729.988	0.10520156
730.177	0.10520558
730.366	0.10523479
730.555	0.10526609
730.744	0.10529988
730.933	0.10538877
731.122	0.10542515
731.31	0.10547064
731.499	0.10549853
731.688	0.10559166
731.877	0.10567272
732.066	0.10576701
732.255	0.10583786
732.444	0.10587661
732.632	0.1059167
732.821	0.10597673
733.01	0.10599878
733.199	0.10599771
733.388	0.10601639
733.576	0.10606707
733.765	0.1060588
733.954	0.10614221
734.142	0.10625269
734.331	0.10629921
734.52	0.10638839
734.708	0.10652309
734.897	0.10654467
735.086	0.10666268
735.274	0.10663755
735.463	0.10666572
735.651	0.10672257
735.84	0.10675899
736.028	0.10671312
736.217	0.10678161
736.405	0.10679333
736.594	0.10690105
736.782	0.10698994
736.971	0.10705473
737.159	0.10713621
737.347	0.10719194
737.536	0.10723642
737.724	0.10731172
737.912	0.10734484
738.101	0.10732869
738.289	0.10734911
738.477	0.10738986
738.666	0.10742948
738.854	0.1074306
739.042	0.10745332
739.23	0.10748266
739.418	0.10757049
739.607	0.10762956
739.795	0.10768103
739.983	0.10774809
740.171	0.10782092
740.359	0.10787621
740.547	0.10793085
740.735	0.10796187
740.923	0.10801008
741.112	0.10805623
741.3	0.10811539
741.488	0.10815881
741.676	0.10826361
741.864	0.10837635
742.052	0.10844793
742.239	0.1084616
742.427	0.10845905
742.615	0.10849518
742.803	0.1085665
742.991	0.10855676
743.179	0.10854205
743.367	0.10854458
743.555	0.1086313
743.742	0.1087119
743.93	0.10875222
744.118	0.1087753
744.306	0.1088271
744.494	0.10882849
744.681	0.10884924
744.869	0.1088286
745.057	0.10888139
745.244	0.10890642
745.432	0.10895455
745.62	0.10901143
745.807	0.10911191
745.995	0.10916217
746.182	0.10925208
746.37	0.10921979
746.558	0.10929273
746.745	0.10931901
746.933	0.10927926
747.12	0.10929249
747.308	0.10933728
747.495	0.10933551
747.683	0.10939888
747.87	0.10941743
748.057	0.10944161
748.245	0.10952706
748.432	0.10957966
748.62	0.10959997
748.807	0.10963827
748.994	0.10965833
749.182	0.10960116
749.369	0.10964105
749.556	0.10964318
749.743	0.10965625
749.931	0.10967504
750.118	0.10970096
750.305	0.10978149
750.492	0.1098473
750.68	0.10986671
750.867	0.1099008
751.054	0.10992897
751.241	0.10991768
751.428	0.10995482
751.615	0.10992833
751.802	0.10998152
751.989	0.11001739
752.176	0.11004515
752.363	0.11003886
752.55	0.1101068
752.737	0.11006467
752.924	0.11004767
753.111	0.11000743
753.298	0.10997163
753.485	0.10997914
753.672	0.11002867
753.859	0.11002052
754.046	0.11008688
754.233	0.11011654
754.42	0.11015586
754.606	0.11016743
754.793	0.11021162
754.98	0.11025632
755.167	0.11028403
755.353	0.11030536
755.54	0.11034675
755.727	0.11035115
755.914	0.11040686
756.1	0.11042216
756.287	0.11042983
756.474	0.1103827
756.66	0.11040894
756.847	0.11037839
757.033	0.1103812
757.22	0.11038063
757.407	0.1103602
757.593	0.11031343
757.78	0.11042713
757.966	0.11039767
758.153	0.11043815
758.339	0.11048634
758.526	0.11050527
758.712	0.11051631
758.898	0.11052633
759.085	0.11045368
759.271	0.11045016
759.458	0.11047318
759.644	0.11049635
759.83	0.11050126
760.017	0.11050275
760.203	0.1105442
760.389	0.11055065
760.576	0.11054624
760.762	0.11049016
760.948	0.11043449
761.134	0.11040066
761.32	0.11043108
761.507	0.11043067
761.693	0.11041629
761.879	0.11041684
762.065	0.11043309
762.251	0.11044111
762.437	0.11048657
762.623	0.11043817
762.809	0.1103639
762.995	0.11039718
763.181	0.11039167
763.367	0.11042212
763.553	0.11044912
763.739	0.11043189
763.925	0.11045308
764.111	0.11048775
764.297	0.11047646
764.483	0.11047556
764.669	0.11039814
764.855	0.11037714
765.041	0.11034619
765.227	0.11027378
765.412	0.11026501
765.598	0.1103003
765.784	0.11034014
765.97	0.11039496
766.156	0.11037658
766.341	0.11036049
766.527	0.11038347
766.713	0.11031819
766.898	0.11024796
767.084	0.11013789
767.27	0.11008013
767.455	0.11004434
767.641	0.11003348
767.827	0.11000587
768.012	0.11005989
768.198	0.11003823
768.383	0.11007658
768.569	0.11004589
768.754	0.11002381
768.94	0.11000324
769.125	0.10996707
769.311	0.10994057
769.496	0.10989966
769.682	0.10986273
769.867	0.1098785
770.052	0.10988876
770.238	0.10987615
770.423	0.1098766
770.608	0.10979125
770.794	0.10977604
770.979	0.109708
771.164	0.10968777
771.35	0.10963028
771.535	0.10959481
771.72	0.10955795
771.905	0.10960711
772.09	0.10960749
772.276	0.10961024
772.461	0.1095585
772.646	0.10949401
772.831	0.10944476
773.016	0.10937278
773.201	0.10930268
773.386	0.10924487
773.571	0.10917927
773.756	0.10914659
773.941	0.10909909
774.126	0.10906183
774.311	0.10899252
774.496	0.10891138
774.681	0.10883695
774.866	0.10882952
775.051	0.10875635
775.236	0.10873662
775.421	0.10864971
775.606	0.10861647
775.791	0.10855033
775.976	0.1085457
776.16	0.10848751
776.345	0.1084726
776.53	0.10845329
776.715	0.10845394
776.899	0.10841613
777.084	0.10842818
777.269	0.10834068
777.454	0.10823847
777.638	0.10816394
777.823	0.10811375
778.008	0.10803313
778.192	0.10800696
778.377	0.10792783
778.561	0.10795329
778.746	0.10796622
778.931	0.10796645
779.115	0.10789317
779.3	0.10784269
779.484	0.10779206
779.669	0.10771533
779.853	0.10760585
780.037	0.10758395
780.222	0.10749063
780.406	0.10747463
780.591	0.10741371
780.775	0.10737342
780.959	0.10729563
781.144	0.10723088
781.328	0.10712178
781.512	0.10709197
781.697	0.10699698
781.881	0.10690215
782.065	0.10681561
782.249	0.10671964
782.434	0.106666
782.618	0.10655354
782.802	0.10644392
782.986	0.10639609
783.17	0.10644872
783.354	0.10640126
783.539	0.10643632
783.723	0.10635375
783.907	0.10626738
784.091	0.1061909
784.275	0.10604927
784.459	0.10588645
784.643	0.10585048
784.827	0.10574151
785.011	0.10566648
785.195	0.10563003
785.379	0.10558645
785.563	0.10552966
785.747	0.10549657
785.93	0.105397
786.114	0.10527755
786.298	0.10521307
786.482	0.1051272
786.666	0.10502786
786.85	0.1050279
787.033	0.10491752
787.217	0.10483581
787.401	0.10481558
787.585	0.10469929
787.768	0.10458004
787.952	0.10446556
788.136	0.1043085
788.319	0.10422025
788.503	0.10410491
788.687	0.10396209
788.87	0.10394935
789.054	0.1039287
789.237	0.10388198
789.421	0.10379447
789.605	0.10373504
789.788	0.10369281
789.972	0.10362789
790.155	0.10345042
790.338	0.10333256
790.522	0.10324288
790.705	0.10316568
790.889	0.10307223
791.072	0.10295309
791.256	0.10291194
791.439	0.10287408
791.622	0.10276966
791.806	0.10269479
791.989	0.10258869
792.172	0.10245982
792.355	0.10232339
792.539	0.10212718
792.722	0.10198054
792.905	0.10191995
793.088	0.10178974
793.271	0.10169632
793.455	0.10159637
793.638	0.10155539
793.821	0.10151675
794.004	0.10150772
794.187	0.10144793
794.37	0.101344
794.553	0.10125666
794.736	0.10116388
794.919	0.10105303
795.102	0.10097302
795.285	0.10082831
795.468	0.10067956
795.651	0.10057474
795.834	0.10051185
796.017	0.10045775
796.2	0.10036693
796.383	0.10029512
796.566	0.100217
796.749	0.10012352
796.931	0.10002978
797.114	0.09991235
797.297	0.09981141
797.48	0.09968427
797.663	0.09952444
797.845	0.09941637
798.028	0.0993858
798.211	0.09930384
798.393	0.09922088
798.576	0.0991113
798.759	0.09898987
798.941	0.09888634
799.124	0.09878375
799.307	0.09860436
799.489	0.0984605
799.672	0.09829341
799.854	0.09811565
800.037	0.09800535
800.219	0.09792927
800.402	0.09785314
800.584	0.09781022
800.767	0.09776506
800.949	0.09770056
801.132	0.0976758
801.314	0.09760408
801.496	0.09751706
801.679	0.09738722
801.861	0.09722608
802.043	0.09709688
802.226	0.09701204
802.408	0.09688315
802.59	0.09678607
802.772	0.09663894
802.955	0.09651169
803.137	0.09639785
803.319	0.09628428
803.501	0.09609357
803.684	0.09601298
803.866	0.09582867
804.048	0.09562336
804.23	0.09550069
804.412	0.09539677
804.594	0.09522731
804.776	0.09518697
804.958	0.09502193
805.14	0.09498545
805.322	0.0949822
805.504	0.09486475
805.686	0.09473575
805.868	0.09459873
806.05	0.09439193
806.232	0.09421956
806.414	0.09404345
806.596	0.09389436
806.778	0.09374487
806.96	0.09361145
807.141	0.09353028
807.323	0.09350327
807.505	0.09341998
807.687	0.09327858
807.869	0.09316536
808.05	0.09310718
808.232	0.0929806
808.414	0.09287351
808.595	0.09266631
808.777	0.09252682
808.959	0.09240309
809.14	0.09228492
809.322	0.09211717
809.504	0.09199659
809.685	0.09188246
809.867	0.09177184
810.048	0.09165636
810.23	0.09156205
810.411	0.09142294
810.593	0.09135836
810.774	0.09122603
810.956	0.09105379
811.137	0.09090712
811.319	0.09078455
811.5	0.09066861
811.681	0.09053464
811.863	0.09031237
812.044	0.09019321
812.225	0.09006646
812.407	0.0900217
812.588	0.08986666
812.769	0.08973022
812.951	0.08965207
813.132	0.08952998
813.313	0.08936595
813.494	0.08923537
813.675	0.08907943
813.857	0.08897672
814.038	0.0888797
814.219	0.0886829
814.4	0.08854138
814.581	0.08848275
814.762	0.08841425
814.943	0.08825047
815.124	0.08812945
815.305	0.08796865
815.486	0.08784156
815.667	0.08774173
815.848	0.08760743
816.029	0.08742102
816.21	0.08726847
816.391	0.08713348
816.572	0.08705389
816.753	0.08693873
816.934	0.08684198
817.115	0.0867239
817.295	0.08661152
817.476	0.0864578
817.657	0.08630179
817.838	0.08611799
818.019	0.08592546
818.199	0.08573068
818.38	0.08547854
818.561	0.08527221
818.741	0.08513236
818.922	0.08502951
819.103	0.08492931
819.283	0.08483392
819.464	0.08472495
819.645	0.08464558
819.825	0.08455694
820.006	0.08438156
820.186	0.08421154
820.367	0.0840612
820.547	0.08386874
820.728	0.08367138
820.908	0.08354648
821.089	0.08344348
821.269	0.08337464
821.45	0.08329554
821.63	0.08309475
821.81	0.08295566
821.991	0.08281458
822.171	0.08266122
822.351	0.08248141
822.532	0.08231861
822.712	0.08196469
822.892	0.08185345
823.072	0.08177276
823.253	0.081608
823.433	0.08141337
823.613	0.08126426
823.793	0.08116333
823.973	0.0811051
824.154	0.08095275
824.334	0.08077064
824.514	0.0806922
824.694	0.08055084
824.874	0.08037887
825.054	0.08019519
825.234	0.08006955
825.414	0.07989347
825.594	0.07977933
825.774	0.07969235
825.954	0.07959567
826.134	0.07954858
826.314	0.07943168
826.494	0.0793351
826.674	0.079143
826.854	0.07900268
827.033	0.07874781
827.213	0.07861382
827.393	0.07832722
827.573	0.07817247
827.753	0.07800023
827.932	0.07791583
828.112	0.07773098
828.292	0.07762928
828.472	0.07744359
828.651	0.07740752
828.831	0.07731216
829.011	0.07715621
829.19	0.07702347
829.37	0.07680452
829.549	0.07668216
829.729	0.07648239
829.909	0.07619273
830.088	0.07592516
830.268	0.07570749
830.447	0.07552425
830.627	0.07541704
830.806	0.07521314
830.986	0.07506943
831.165	0.07500883
831.344	0.0749202
831.524	0.07486227
831.703	0.07468279
831.883	0.07453541
832.062	0.07431059
832.241	0.07408243
832.421	0.07389578
832.6	0.07372245
832.779	0.07348832
832.958	0.07332992
833.138	0.07314008
833.317	0.07303144
833.496	0.07301803
833.675	0.07289529
833.854	0.0727597
834.034	0.07264582
834.213	0.07245396
834.392	0.07235036
834.571	0.07216985
834.75	0.07195088
834.929	0.07171138
835.108	0.07157008
835.287	0.07144845
835.466	0.07139975
835.645	0.07123142
835.824	0.07110331
836.003	0.07097748
836.182	0.07089253
836.361	0.07067633
836.54	0.07046099
836.719	0.07023833
836.897	0.07008113
837.076	0.06993739
837.255	0.069766
837.434	0.06963448
837.613	0.06945378
837.791	0.06942115
837.97	0.06932231
838.149	0.06921447
838.328	0.06902524
838.506	0.06893803
838.685	0.06878697
838.864	0.06876274
839.042	0.06846593
839.221	0.0682773
839.4	0.06813101
839.578	0.06801783
839.757	0.06771091
839.935	0.06756325
840.114	0.06740534
840.292	0.0673823
840.471	0.06728895
840.649	0.06708004
840.828	0.06694613
841.006	0.0669765
841.185	0.06678499
841.363	0.06656768
841.541	0.06638009
841.72	0.06618236
841.898	0.06608609
842.076	0.06592898
842.255	0.06565123
842.433	0.0654572
842.611	0.06525638
842.789	0.06509498
842.968	0.06507993
843.146	0.06498259
843.324	0.06480358
843.502	0.06470019
843.68	0.06468227
843.859	0.06457493
844.037	0.06446052
844.215	0.06422779
844.393	0.06404656
844.571	0.06393992
844.749	0.06378484
844.927	0.06350826
845.105	0.06337513
845.283	0.06316747
845.461	0.06290937
845.639	0.06268532
845.817	0.0624773
845.995	0.06236605
846.173	0.06227975
846.351	0.06211362
846.529	0.06202143
846.706	0.06194701
846.884	0.06185861
847.062	0.0617266
847.24	0.06159355
847.418	0.06141405
847.595	0.06124433
847.773	0.06100898
847.951	0.06079728
848.129	0.06063419
848.306	0.06049747
848.484	0.06035668
848.662	0.06027836
848.839	0.06020407
849.017	0.06013165
849.194	0.06007382
849.372	0.05985884
849.549	0.05967408
849.727	0.05941741
849.905	0.05915675
850.082	0.05891093
850.26	0.05873588
850.437	0.05850203
850.614	0.058385
850.792	0.05829439
850.969	0.05827719
851.147	0.05825787
851.324	0.05816552
851.501	0.0579596
851.679	0.05786214
851.856	0.05772336
852.033	0.0575816
852.211	0.05736692
852.388	0.05708404
852.565	0.05693576
852.742	0.05680333
852.92	0.0565649
853.097	0.0563469
853.274	0.05615714
853.451	0.05599384
853.628	0.05589367
853.805	0.05570654
853.982	0.05556404
854.159	0.05549737
854.336	0.05540229
854.514	0.05527985
854.691	0.05511752
854.868	0.05500554
855.045	0.05488408
855.221	0.05472524
855.398	0.05453097
855.575	0.05436888
855.752	0.05419178
855.929	0.05409976
856.106	0.05393188
856.283	0.05379019
856.46	0.05366317
856.637	0.05362825
856.813	0.05358639
856.99	0.05347859
857.167	0.0533309
857.344	0.05314614
857.52	0.05298411
857.697	0.05276217
857.874	0.05251801
858.05	0.05228103
858.227	0.05207542
858.404	0.05195342
858.58	0.05186506
858.757	0.05173422
858.933	0.05165926
859.11	0.05156538
859.287	0.05144407
859.463	0.05133959
859.64	0.05108905
859.816	0.05091739
859.993	0.05070937
860.169	0.05053065
860.345	0.05031655
860.522	0.05019038
860.698	0.05002665
860.875	0.04987801
861.051	0.04971634
861.227	0.04971571
861.404	0.04961042
861.58	0.04954871
861.756	0.04937957
861.932	0.04929807
862.109	0.04919263
862.285	0.04903279
862.461	0.04874138
862.637	0.04860907
862.813	0.04842216
862.99	0.04823193
863.166	0.04804046
863.342	0.04784916
863.518	0.04771549
863.694	0.04770344
863.87	0.0475824
864.046	0.04746446
864.222	0.04743026
864.398	0.04739235
864.574	0.04735979
864.75	0.04724887
864.926	0.04702944
865.102	0.04680612
865.278	0.04662154
865.454	0.04645601
865.63	0.04620786
865.805	0.04610653
865.981	0.04596769
866.157	0.04585465
866.333	0.04581511
866.509	0.04585141
866.684	0.04569594
866.86	0.04569625
867.036	0.04562396
867.212	0.04561729
867.387	0.04559738
867.563	0.04545451
867.739	0.04528298
867.914	0.04515429
868.09	0.04487219
868.265	0.04457154
868.441	0.04435389
868.617	0.04416925
868.792	0.04400206
868.968	0.04382379
869.143	0.04376558
869.319	0.04380783
869.494	0.04376939
869.67	0.04375421
869.845	0.04360822
870.02	0.04352508
870.196	0.04333286
870.371	0.04313286
870.546	0.04287796
870.722	0.04262023
870.897	0.04234322
871.072	0.04214977
871.248	0.04192348
871.423	0.04177186
871.598	0.04158925
871.773	0.04145003
871.949	0.04144545
872.124	0.04128114
872.299	0.04127094
872.474	0.04129437
872.649	0.04117488
872.824	0.04113418
872.999	0.04099009
873.174	0.04077992
873.349	0.040594
873.524	0.04037269
873.699	0.04019778
873.874	0.04008584
874.049	0.03993353
874.224	0.03985089
874.399	0.03974847
874.574	0.03976583
874.749	0.03967808
874.924	0.03960248
875.099	0.03957136
875.274	0.03946405
875.449	0.03932562
875.623	0.03921141
875.798	0.03906825
875.973	0.03884637
876.148	0.03851122
876.322	0.03826908
876.497	0.03809651
876.672	0.03795302
876.846	0.03782226
877.021	0.03781174
877.196	0.03781912
877.37	0.03794321
877.545	0.03788225
877.72	0.03776373
877.894	0.03763784
878.069	0.03752978
878.243	0.03723364
878.418	0.03700887
878.592	0.03675169
878.767	0.03650039
878.941	0.03637436
879.116	0.03629355
879.29	0.0362316
879.464	0.0361646
879.639	0.03610593
879.813	0.03616086
879.987	0.03628128
880.162	0.03620053
880.336	0.0360292
880.51	0.0358108
880.685	0.03561911
880.859	0.03535808
881.033	0.03502029
881.207	0.0347559
881.381	0.03461935
881.556	0.03445185
881.73	0.03429348
881.904	0.03428257
882.078	0.03431471
882.252	0.03432401
882.426	0.03425825
882.6	0.03420969
882.774	0.03421604
882.948	0.03431719
883.122	0.03420228
883.296	0.03409337
883.47	0.03393919
883.644	0.03387059
883.818	0.03362208
883.992	0.0335153
884.166	0.03325239
884.34	0.03310927
884.514	0.03293219
884.687	0.03279703
884.861	0.03262492
885.035	0.03257342
885.209	0.03246782
885.382	0.03241148
885.556	0.03242565
885.73	0.03236537
885.904	0.03233278
886.077	0.03234621
886.251	0.0322475
886.425	0.03200515
886.598	0.03181391
886.772	0.03150551
886.945	0.03135329
887.119	0.03115679
887.292	0.03093225
887.466	0.03081726
887.64	0.03085235
887.813	0.03086889
887.986	0.03093891
888.16	0.0309712
888.333	0.03090895
888.507	0.03071161
888.68	0.03057483
888.854	0.03043401
889.027	0.03024938
889.2	0.03007019
889.374	0.0299
889.547	0.02982452
889.72	0.02974117
889.893	0.02971597
890.067	0.02955589
890.24	0.02942505
890.413	0.02931395
890.586	0.02914534
890.759	0.02904322
890.933	0.02901834
891.106	0.02892846
891.279	0.02893593
891.452	0.02888995
891.625	0.02890276
891.798	0.02879681
891.971	0.02865668
892.144	0.02846842
892.317	0.02829635
892.49	0.02816204
892.663	0.0280079
892.836	0.02773885
893.009	0.02770992
893.182	0.02762823
893.355	0.02762388
893.527	0.02768415
893.7	0.02764606
893.873	0.0276789
894.046	0.02768476
894.219	0.02758616
894.391	0.0274225
894.564	0.02725434
894.737	0.02698302
894.91	0.02679794
895.082	0.0266388
895.255	0.02643145
895.428	0.02624934
895.6	0.02617861
895.773	0.02610165
895.945	0.02608872
896.118	0.02595003
896.291	0.02591958
896.463	0.02595402
896.636	0.02599227
896.808	0.02598118
896.981	0.02600367
897.153	0.02577975
897.326	0.02579115
897.498	0.0255827
897.67	0.02535802
897.843	0.02511693
898.015	0.02498269
898.187	0.02482817
898.36	0.02483652
898.532	0.0246934
898.704	0.02456488
898.877	0.02457112
899.049	0.02455177
899.221	0.02452589
899.393	0.02440337
899.566	0.02437435
899.738	0.02434209
899.91	0.02436161
900.082	0.02419986
900.254	0.02416866
900.426	0.02401148
900.598	0.0239715
900.77	0.02373925
900.942	0.02357489
901.114	0.02335581
901.286	0.02332963
901.458	0.02324951
901.63	0.02315225
901.802	0.02309379
901.974	0.02308887
902.146	0.02303794
902.318	0.0231123
902.49	0.02304582
902.662	0.02283453
902.834	0.02274605
903.005	0.02256962
903.177	0.02253171
903.349	0.02251617
903.521	0.02233759
903.693	0.02210544
903.864	0.02215397
904.036	0.021992
904.208	0.02196486
904.379	0.02187589
904.551	0.02177165
904.723	0.02176546
904.894	0.02171126
905.066	0.02165044
905.237	0.02172474
905.409	0.02181285
905.58	0.02173347
905.752	0.02167181
905.923	0.02151608
906.095	0.02161694
906.266	0.02153634
906.438	0.02129804
906.609	0.0210163
906.78	0.02091651
906.952	0.02075055
907.123	0.02071843
907.295	0.0204969
907.466	0.02027916
907.637	0.02026871
907.808	0.0202067
907.98	0.02016833
908.151	0.02014672
908.322	0.02010515
908.493	0.02020185
908.665	0.02024551
908.836	0.02021416
909.007	0.02011462
909.178	0.01993945
909.349	0.01984242
909.52	0.01970387
909.691	0.01942617
909.862	0.01935451
910.033	0.0191916
910.204	0.01911415
910.375	0.01913436
910.546	0.01905901
910.717	0.01902446
910.888	0.01915696
911.059	0.01908049
911.23	0.01915675
911.401	0.01915143
911.572	0.01913454
911.742	0.0190616
911.913	0.0189738
912.084	0.01876803
912.255	0.01860983
912.426	0.0184372
912.596	0.01824605
912.767	0.01805912
912.938	0.01801732
913.108	0.01784708
913.279	0.0177398
913.45	0.01769413
913.62	0.01769479
913.791	0.01778344
913.962	0.01778616
914.132	0.01765282
914.303	0.01769335
914.473	0.01766401
914.644	0.01762638
914.814	0.0174679
914.985	0.01728357
915.155	0.01711138
915.326	0.01707857
915.496	0.01689467
915.666	0.01678632
915.837	0.01669842
916.007	0.01672178
916.177	0.01669759
916.348	0.01663108
916.518	0.01656416
916.688	0.01661454
916.858	0.01658347
917.029	0.01663035
917.199	0.01656193
917.369	0.01647676
917.539	0.01652697
917.709	0.01641808
917.88	0.01626246
918.05	0.01619111
918.22	0.01593305
918.39	0.01578493
918.56	0.01569046
918.73	0.01556772
918.9	0.01551465
919.07	0.01545739
919.24	0.01541657
919.41	0.01544968
919.58	0.01550428
919.75	0.01556029
919.92	0.01547863
920.09	0.01544963
920.26	0.01551998
920.429	0.01542129
920.599	0.01535822
920.769	0.01520658
920.939	0.01507215
921.109	0.0148978
921.278	0.01481409
921.448	0.01466181
921.618	0.01447519
921.787	0.01448766
921.957	0.01437492
922.127	0.01425316
922.296	0.01434714
922.466	0.0143724
922.636	0.01439766
922.805	0.01449927
922.975	0.0143464
923.144	0.01433337
923.314	0.01428666
923.483	0.01421475
923.653	0.01407376
923.822	0.01389401
923.992	0.01382231
924.161	0.0136326
924.331	0.01358527
924.5	0.01359119
924.669	0.01339167
924.839	0.01316333
925.008	0.01325354
925.177	0.01311455
925.347	0.0131649
925.516	0.01314542
925.685	0.01314149
925.854	0.01320351
926.023	0.01341191
926.193	0.01321357
926.362	0.01328518
926.531	0.01328132
926.7	0.01305186
926.869	0.01295757
927.038	0.01277081
927.207	0.01251902
927.376	0.01248631
927.545	0.01237437
927.715	0.01233161
927.884	0.01246369
928.052	0.01248417
928.221	0.01251436
928.39	0.01253604
928.559	0.01258465
928.728	0.01257501
928.897	0.0125809
929.066	0.01256768
929.235	0.0125333
929.404	0.01261799
929.572	0.01272755
929.741	0.01284766
929.91	0.01272791
930.079	0.01261092
930.247	0.01254476
930.416	0.01240544
930.585	0.01230339
930.753	0.01208207
930.922	0.01196819
931.091	0.01207168
931.259	0.01206405
931.428	0.01200415
931.596	0.01191203
931.765	0.01202389
931.934	0.01209663
932.102	0.01189999
932.27	0.01192843
932.439	0.01179677
932.607	0.01192644
932.776	0.01193878
932.944	0.01178994
933.113	0.01170862
933.281	0.01181091
933.449	0.01159822
933.618	0.01166837
933.786	0.01144112
933.954	0.01143546
934.123	0.01129818
934.291	0.01132281
934.459	0.01104154
934.627	0.01109949
934.795	0.01102765
934.964	0.01112195
935.132	0.01100998
935.3	0.01118795
935.468	0.01111858
935.636	0.01105278
935.804	0.01091379
935.972	0.01088144
936.14	0.01055134
936.308	0.01055763
936.476	0.01059263
936.644	0.01054135
936.812	0.01065708
936.98	0.01079782
937.148	0.01084508
937.316	0.01116965
937.484	0.01127733
937.652	0.01107885
937.82	0.01117751
937.987	0.01160376
938.155	0.01147658
938.323	0.01142145
938.491	0.01127301
938.658	0.01119681
938.826	0.01121306
938.994	0.01181018
939.162	0.01153952
939.329	0.01139069
939.497	0.01157867
939.665	0.01164176
939.832	0.01161924
940	0.01152159
940.167	0.01080976
940.335	0.01083405
940.502	0.01110877
940.67	0.01089358
940.837	0.0113134
941.005	0.01165479
941.172	0.01224369
941.34	0.01268462
941.507	0.01357594
941.674	0.01412412
941.842	0.01451666
942.009	0.0148964
942.177	0.0148338
942.344	0.01517682
942.511	0.01424165
942.678	0.01357442
942.846	0.01342976
943.013	0.01390269
943.18	0.01336061
943.347	0.01300186
943.514	0.01204421
943.682	0.01341191
943.849	0.01289323
944.016	0.01265937
944.183	0.01236829
944.35	0.01256482
944.517	0.01333883
944.684	0.01457894
944.851	0.01415915
945.018	0.01533944
945.185	0.01615149
945.352	0.01561755
945.519	0.01565734
945.686	0.01555888
945.853	0.01482339
946.02	0.0151598
946.187	0.01507027
946.353	0.01419692
946.52	0.01451123
946.687	0.01479892
946.854	0.01426204
947.021	0.0135627
947.187	0.01266736
947.354	0.01120799
947.521	0.01148537
947.687	0.01069817
947.854	0.00977036
948.021	0.00964715
948.187	0.0099204
948.354	0.01004674
948.52	0.01047615
948.687	0.01057732
948.854	0.01114279
949.02	0.01116543
949.187	0.01178063
949.353	0.01144989
949.52	0.01119692
949.686	0.01145794
949.852	0.01075749
950.019	0.01037318
950.185	0.0104971
950.352	0.01082811
950.518	0.01100956
950.684	0.01114445
950.851	0.01093873
951.017	0.01053774
951.183	0.0108408
951.349	0.01015456
951.516	0.00924592
951.682	0.00873328
951.848	0.00868759
952.014	0.00834791
952.18	0.00864209
952.346	0.00838956
952.512	0.00844118
952.679	0.00864115
952.845	0.00822956
953.011	0.00853199
953.177	0.00855935
953.343	0.0084217
953.509	0.0084059
953.675	0.00878237
953.841	0.00878608
954.007	0.00931343
954.172	0.00891748
954.338	0.00903902
954.504	0.00958398
954.67	0.00977342
954.836	0.00929478
955.002	0.00958588
955.167	0.00912799
955.333	0.00922195
955.499	0.00893057
955.665	0.00854412
955.83	0.00805671
955.996	0.00801474
956.162	0.00686152
956.327	0.00739228
956.493	0.00742855
956.659	0.00690365
956.824	0.00722828
956.99	0.00714812
957.155	0.00734757
957.321	0.00791064
957.486	0.00779209
957.652	0.00743213
957.817	0.00806121
957.983	0.00772804
958.148	0.0082144
958.314	0.00845308
958.479	0.00845314
958.644	0.00826681
958.81	0.00808532
958.975	0.00775314
959.14	0.00729961
959.306	0.00692059
959.471	0.00637303
959.636	0.00622739
959.801	0.00610436
959.967	0.006412
960.132	0.00671031
960.297	0.00696944
960.462	0.0068239
960.627	0.0070425
960.792	0.00724438
960.957	0.00749812
961.123	0.00711889
961.288	0.00713639
961.453	0.00743722
961.618	0.00711423
961.783	0.00680915
961.948	0.00668702
962.113	0.00641697
962.277	0.00638572
962.442	0.00628863
962.607	0.00585255
962.772	0.00608656
962.937	0.00639407
963.102	0.00596012
963.267	0.00580017
963.431	0.00586263
963.596	0.00574678
963.761	0.00573728
963.926	0.00576074
964.09	0.00566964
964.255	0.00591518
964.42	0.00579525
964.584	0.00577471
964.749	0.00558396
964.914	0.00539234
965.078	0.00549775
965.243	0.00573257
965.407	0.00558798
965.572	0.00566221
965.736	0.00566441
965.901	0.0056536
966.065	0.0057664
966.23	0.00538618
966.394	0.00502794
966.559	0.004797
966.723	0.00464084
966.887	0.00463472
967.052	0.00476376
967.216	0.00473579
967.38	0.00504902
967.545	0.0051641
967.709	0.0055046
967.873	0.0057735
968.037	0.00573362
968.202	0.00541505
968.366	0.00552054
968.53	0.00535942
968.694	0.0049683
968.858	0.00505596
969.022	0.00482552
969.187	0.00504984
969.351	0.00497676
969.515	0.00458852
969.679	0.00438519
969.843	0.00439201
970.007	0.00400985
970.171	0.00393288
970.335	0.00344568
970.499	0.00364735
970.662	0.00388572
970.826	0.00408763
970.99	0.00440884
971.154	0.00440031
971.318	0.004846
971.482	0.00479079
971.645	0.00518728
971.809	0.00489492
971.973	0.00499372
972.137	0.0047741
972.3	0.0047248
972.464	0.00443036
972.628	0.0047226
972.791	0.0042837
972.955	0.00450138
973.119	0.00434158
973.282	0.00403127
973.446	0.00446059
973.609	0.00433993
973.773	0.00410964
973.936	0.00443467
974.1	0.00475882
974.263	0.0046043
974.427	0.00496492
974.59	0.00449924
974.754	0.0044847
974.917	0.00406935
975.08	0.00396011
975.244	0.00344908
975.407	0.00385052
975.57	0.00375637
975.734	0.00378908
975.897	0.0038078
976.06	0.0045247
976.223	0.00446511
976.387	0.00439945
976.55	0.0042364
976.713	0.00436973
976.876	0.00458105
977.039	0.00464017
977.202	0.00450536
977.365	0.00457486
977.528	0.00513321
977.692	0.00484405
977.855	0.00505049
978.018	0.00515719
978.181	0.00507018
978.344	0.00544444
978.506	0.00517102
978.669	0.00480299
978.832	0.00498401
978.995	0.00437127
979.158	0.00407126
979.321	0.0040445
979.484	0.003402
979.646	0.00321568
979.809	0.00362825
979.972	0.0035899
980.135	0.00384731
980.297	0.00401472
980.46	0.00342207
980.623	0.00380825
980.786	0.00383701
980.948	0.00313844
981.111	0.00281426
981.273	0.0024696
981.436	0.00252297
981.599	0.00341431
981.761	0.00321648
981.924	0.00371929
982.086	0.00391727
982.249	0.00469177
982.411	0.00516273
982.573	0.0052729
982.736	0.00515333
982.898	0.00502658
983.061	0.00417731
983.223	0.00379653
983.385	0.00275131
983.548	0.00232167
983.71	0.0020378
983.872	0.00184104
984.034	0.00188171
984.197	0.00220419
984.359	0.00238298
984.521	0.00319032
984.683	0.00338617
984.845	0.00344805
985.008	0.00344636
985.17	0.00339637
985.332	0.00358977
985.494	0.00377107
985.656	0.00363328
985.818	0.00408436
985.98	0.0038715
986.142	0.003731
986.304	0.00370306
986.466	0.00370695
986.628	0.00414045
986.79	0.00368471
986.952	0.00380712
987.113	0.00362826
987.275	0.00356907
987.437	0.0038353
987.599	0.00381837
987.761	0.00339045
987.922	0.00343278
988.084	0.00294099
988.246	0.00288351
988.408	0.0031817
988.569	0.00299584
988.731	0.00371211
988.893	0.00404784
989.054	0.00442098
989.216	0.00512408
989.377	0.00586836
989.539	0.00573367
989.701	0.00591386
989.862	0.00517876
990.024	0.00490474
990.185	0.00475738
990.347	0.00418163
990.508	0.00379154
990.669	0.00410618
990.831	0.00337988
990.992	0.00355431
991.154	0.00352274
991.315	0.00367119
991.476	0.00371196
991.638	0.00371741
991.799	0.00339023
991.96	0.00422747
992.121	0.00403431
992.283	0.00467159
992.444	0.00492022
992.605	0.00500468
992.766	0.00470742
992.927	0.00480784
993.088	0.00429242
993.249	0.00471595
993.41	0.00404218
993.572	0.00313759
993.733	0.00322943
993.894	0.00349402
994.055	0.00320267
994.216	0.00307426
994.376	0.00229542
994.537	0.00250706
994.698	0.00304828
994.859	0.00236982
995.02	0.00248351
995.181	0.00345395
995.342	0.00432843
995.503	0.00444506
995.663	0.00471898
995.824	0.00418925
995.985	0.00490836
996.146	0.00453312
996.306	0.00379441
996.467	0.00273004
996.628	0.00314535
996.788	0.00281899
996.949	0.00415346
997.11	0.00402527
997.27	0.00436906
997.431	0.00479315
997.591	0.00579567
997.752	0.00570717
997.912	0.00566579
998.073	0.00524228
998.233	0.00552541
998.394	0.00580338
998.554	0.00543138
998.714	0.00508816
998.875	0.00456573
999.035	0.00551457
999.196	0.00567645
999.356	0.00513977
999.516	0.00507755
999.676	0.00489498
999.837	0.00455584
999.997	0.00546088
1000.157	0.00454995
1000.317	0.00436046
1000.477	0.00459193
1000.638	0.00424572
1000.798	0.00468626
1000.958	0.00474233
1001.118	0.00381358
1001.278	0.0034981
1001.438	0.0028126
1001.598	0.00246516
1001.758	0.00326673
1001.918	0.00275376
1002.078	0.00363939
1002.238	0.00428315
1002.398	0.00444293
1002.558	0.00580496
1002.718	0.00665161
1002.878	0.00578423
1003.037	0.00625899
1003.197	0.00572303
1003.357	0.00511473
1003.517	0.00495481
1003.677	0.00416745
1003.836	0.00389248
1003.996	0.00443493
1004.156	0.00477729
1004.315	0.00540909
1004.475	0.0061714
1004.635	0.00632807
1004.794	0.00640326
1004.954	0.00636053
1005.114	0.00617541
1005.273	0.00560945
1005.433	0.00449487
1005.592	0.00397149
1005.752	0.00333517
1005.911	0.00323243
1006.071	0.00337602
1006.23	0.0031635
1006.389	0.00401258
1006.549	0.00459272
1006.708	0.0045107
1006.868	0.00545248
1007.027	0.00558081
1007.186	0.00426088
1007.345	0.00585191
1007.505	0.00533344
1007.664	0.00458123
1007.823	0.0047829
1007.982	0.0049345
1008.142	0.00510875
1008.301	0.00529015
1008.46	0.00379109
1008.619	0.0039654
1008.778	0.00494774
1008.937	0.00462036
1009.096	0.00469706
1009.255	0.00425767
1009.414	0.0048715
1009.573	0.00514066
1009.732	0.00505617
1009.891	0.00503133
1010.05	0.00587405
1010.209	0.00512062
1010.368	0.00553087
1010.527	0.00592045
1010.686	0.00588592
1010.845	0.00551218
1011.003	0.00488138
1011.162	0.00580976
1011.321	0.00607403
1011.48	0.00627585
1011.638	0.00683227
1011.797	0.00598225
1011.956	0.0059749
1012.115	0.00607029
1012.273	0.00434555
1012.432	0.00487093
1012.59	0.00345551
1012.749	0.00362992
1012.908	0.00515606
1013.066	0.00612052
1013.225	0.00588242
1013.383	0.00556483
1013.542	0.0056882
1013.7	0.00570631
1013.859	0.00482618
1014.017	0.00396432
1014.175	0.00316039
1014.334	0.00411217
1014.492	0.00489245
1014.65	0.00502215
1014.809	0.00693032
1014.967	0.00694563
1015.125	0.0081004
1015.284	0.0091973
1015.442	0.00863798
1015.6	0.00925804
1015.758	0.00953851
1015.916	0.01155968
1016.075	0.01256911
1016.233	0.01178962
1016.391	0.01393659
1016.549	0.01521156
1016.707	0.01359592
1016.865	0.01334697
1017.023	0.00994099
1017.181	0.01200029
1017.339	0.01116409
1017.497	0.00827894
1017.655	0.00811461
1017.813	0.0097942
1017.971	0.01003271
1018.129	0.0094251
1018.286	0.00599501
1018.444	0.00780539
1018.602	0.00706883
1018.76	0.00593413
1018.918	0.00723243
1019.075	0.00651556
1019.233	0.0090527
1019.391	0.00864778
1019.549	0.00757775
1019.706	0.00962028
1019.864	0.00929627
1020.022	0.0064539
1020.179	0.00676442
1020.337	0.00609541
1020.494	0.00808997
1020.652	0.00837809
1020.809	0.00968828
1020.967	0.01185931
1021.124	0.01012267
1021.282	0.01094294
1021.439	0.01212652
1021.597	0.01264237
1021.754	0.01262579
1021.911	0.01130229
1022.069	0.0112934
1022.226	0.01446105
1022.384	0.01036425
1022.541	0.0096864
1022.698	0.01071637
1022.855	0.00818278
1023.013	0.00811339
1023.17	0.00744931
1023.327	0.00585539
1023.484	0.00761341
1023.641	0.00570457
1023.798	0.00203579
1023.956	0.00609204
1024.113	0.0057155
1024.27	0.0097651
1024.427	0.01459363
1024.584	0.01862323
1024.741	0.01970528
1024.898	0.0179272
1025.055	0.01480834
1025.212	0.01633476
1025.369	0.00998138
1025.525	0.00827775
1025.682	0.00745115
1025.839	0.00739758
1025.996	0.01062903
1026.153	0.01231965
1026.31	0.00969986
1026.466	0.01188708
1026.623	0.01154404
1026.78	0.01279405
1026.937	0.00935726
1027.093	0.01051663
1027.25	0.00791356
1027.407	0.01273406
1027.563	0.01317796
1027.72	0.01193944
1027.876	0.01139587
1028.033	0.02021292
1028.19	0.01593074
1028.346	0.01801251
1028.503	0.01539981
1028.659	0.01585478
1028.816	0.01918205
1028.972	0.01457959
1029.128	0.00707263
1029.285	0.00890307
1029.441	0.00867972
1029.598	0.0075937
1029.754	0.00363803
1029.91	0.00110873
1030.067	0.00176693
1030.223	0.00299908
1030.379	0.00015421
1030.535	0.00205527
1030.691	0.00270071
1030.848	0.01173103
1031.004	0.01555907
1031.16	0.01826934
1031.316	0.01823726
1031.472	0.0253371
1031.628	0.02239926
1031.784	0.02402038
1031.94	0.0213263
1032.096	0.02289771
1032.252	0.02198152
1032.408	0.03551777
1032.564	0.03132019
1032.72	0.03067052
1032.876	0.0228122
1033.032	0.02087755
1033.188	0.01276755
1033.344	0.01363749
1033.5	0.00049369
1033.655	-0.0007187
1033.811	0.00045257
1033.967	0.00580338
