Data from 0_1_mm_pl_70pc_Absorbance__0__18-54-55-764.txt Node

Date: Wed Mar 01 18:54:55 CET 2023
User: Ange
Spectrometer: FLMT08341
Trigger mode: 0
Integration Time (sec): 1.000000E-2
Scans to average: 400
Electric dark correction enabled: true
Nonlinearity correction enabled: false
Boxcar width: 3
XAxis mode: Wavelengths
Number of Pixels in Spectrum: 3648
>>>>>Begin Spectral Data<<<<<
345.271	0.02127731
345.487	0.02827402
345.704	0.02469277
345.921	0.02386412
346.137	0.01873973
346.354	0.00937655
346.571	0.01200322
346.787	0.01518994
347.004	-0.01591256
347.22	0.00040612
347.437	-0.07625726
347.653	-0.16336282
347.87	0.31848998
348.086	0.23554688
348.303	-0
348.519	0.01167094
348.736	0.02033122
348.952	0.01681832
349.169	0.02373614
349.385	0.02583155
349.601	0.02611236
349.818	0.02633539
350.034	0.02648502
350.251	0.02813422
350.467	0.0293378
350.683	0.02680354
350.9	0.02587024
351.116	0.02626574
351.332	0.02604723
351.549	0.02754065
351.765	0.02780411
351.981	0.02924074
352.197	0.02964218
352.414	0.02983213
352.63	0.03067728
352.846	0.03103824
353.062	0.030323
353.278	0.03065073
353.495	0.03105614
353.711	0.0319314
353.927	0.03134106
354.143	0.03090126
354.359	0.02964317
354.575	0.02994235
354.792	0.0281132
355.008	0.02647746
355.224	0.02574861
355.44	0.02717767
355.656	0.02743409
355.872	0.02691418
356.088	0.02761867
356.304	0.02793918
356.52	0.02785996
356.736	0.0285791
356.952	0.026813
357.168	0.02629188
357.384	0.02664641
357.6	0.02575346
357.816	0.02515321
358.032	0.02456677
358.248	0.02560689
358.464	0.0262621
358.679	0.02510295
358.895	0.0269137
359.111	0.02726674
359.327	0.02658181
359.543	0.02761337
359.759	0.02630304
359.974	0.026307
360.19	0.02766168
360.406	0.02710859
360.622	0.02667551
360.838	0.0284348
361.053	0.02791415
361.269	0.0293819
361.485	0.02975812
361.701	0.02949293
361.916	0.02873852
362.132	0.02965238
362.348	0.0295458
362.563	0.02979165
362.779	0.02790649
362.995	0.02753237
363.21	0.02669379
363.426	0.02730666
363.641	0.02743316
363.857	0.02668206
364.073	0.0269865
364.288	0.02748599
364.504	0.02836736
364.719	0.02983262
364.935	0.02954139
365.15	0.02907592
365.366	0.02951901
365.581	0.02900594
365.797	0.02867085
366.012	0.02823316
366.228	0.0274511
366.443	0.02774064
366.658	0.02674463
366.874	0.02636143
367.089	0.02712487
367.305	0.02813188
367.52	0.02818188
367.735	0.02711828
367.951	0.02566472
368.166	0.02647474
368.381	0.0274743
368.597	0.02679478
368.812	0.02663835
369.027	0.0263863
369.243	0.0274219
369.458	0.02847822
369.673	0.02844559
369.888	0.02799468
370.104	0.02773645
370.319	0.02670668
370.534	0.02685039
370.749	0.02656144
370.964	0.02665523
371.179	0.02719973
371.395	0.02670423
371.61	0.02655827
371.825	0.02758206
372.04	0.02823934
372.255	0.02789828
372.47	0.02799238
372.685	0.02627926
372.9	0.02723486
373.115	0.02820923
373.33	0.02749473
373.545	0.0266703
373.76	0.02711689
373.975	0.027266
374.19	0.02835421
374.405	0.02760576
374.62	0.02720305
374.835	0.02738708
375.05	0.02713813
375.265	0.02716392
375.48	0.02794547
375.695	0.02843732
375.91	0.02880899
376.125	0.03000388
376.339	0.02986621
376.554	0.03079436
376.769	0.03109031
376.984	0.03038551
377.199	0.03003118
377.414	0.03079768
377.628	0.03023
377.843	0.03036334
378.058	0.03000024
378.273	0.02979025
378.487	0.02992906
378.702	0.03060969
378.917	0.02955701
379.131	0.0290413
379.346	0.02961175
379.561	0.03013365
379.775	0.02999924
379.99	0.02994337
380.205	0.02971743
380.419	0.02984353
380.634	0.02974078
380.848	0.02950433
381.063	0.0293709
381.278	0.02984971
381.492	0.02997593
381.707	0.02995096
381.921	0.03000989
382.136	0.02984997
382.35	0.02976098
382.565	0.02987973
382.779	0.02967218
382.994	0.02963418
383.208	0.03010504
383.422	0.03010792
383.637	0.03084137
383.851	0.03098317
384.066	0.03104581
384.28	0.03118532
384.494	0.03091073
384.709	0.03068986
384.923	0.031079
385.137	0.03096246
385.352	0.03128956
385.566	0.03124017
385.78	0.03121773
385.995	0.03190474
386.209	0.03139731
386.423	0.03117095
386.637	0.03153388
386.852	0.0309751
387.066	0.03058252
387.28	0.0312797
387.494	0.03140537
387.708	0.03147618
387.923	0.03177296
388.137	0.03124081
388.351	0.03139673
388.565	0.0322474
388.779	0.03157047
388.993	0.03126885
389.207	0.03127923
389.421	0.03133566
389.635	0.0319366
389.85	0.0323633
390.064	0.0318253
390.278	0.03222407
390.492	0.03257138
390.706	0.0327371
390.92	0.03252372
391.134	0.03270297
391.348	0.03272123
391.561	0.03291417
391.775	0.03266766
391.989	0.03228473
392.203	0.03277298
392.417	0.03281981
392.631	0.03259192
392.845	0.03222697
393.059	0.03215143
393.273	0.03250931
393.486	0.03250073
393.7	0.032109
393.914	0.0323709
394.128	0.03281722
394.342	0.03318603
394.555	0.03320943
394.769	0.03304681
394.983	0.03316678
395.197	0.03337304
395.41	0.03353905
395.624	0.03316564
395.838	0.03290422
396.051	0.0330296
396.265	0.03264739
396.479	0.03295035
396.692	0.03283732
396.906	0.03282199
397.12	0.03280236
397.333	0.03323104
397.547	0.03327303
397.76	0.03364646
397.974	0.0334917
398.187	0.03367214
398.401	0.03346529
398.614	0.03318033
398.828	0.03301568
399.041	0.03301269
399.255	0.03324641
399.468	0.03328244
399.682	0.03332951
399.895	0.03329432
400.109	0.03362728
400.322	0.03369377
400.536	0.03369763
400.749	0.03363556
400.962	0.03357828
401.176	0.03345656
401.389	0.03397797
401.602	0.03381118
401.816	0.03381452
402.029	0.03363288
402.242	0.03426626
402.456	0.03436132
402.669	0.03404787
402.882	0.03346141
403.095	0.03332716
403.309	0.03345647
403.522	0.03376691
403.735	0.03309547
403.948	0.03289552
404.161	0.03323736
404.375	0.03368317
404.588	0.03391716
404.801	0.0338706
405.014	0.0338828
405.227	0.03377213
405.44	0.03389925
405.653	0.0337975
405.866	0.03334148
406.079	0.03350624
406.293	0.03351709
406.506	0.03362059
406.719	0.03370129
406.932	0.03354535
407.145	0.03364542
407.358	0.03414069
407.571	0.03383687
407.784	0.03391145
407.996	0.03385123
408.209	0.03419934
408.422	0.03454147
408.635	0.03435919
408.848	0.03385574
409.061	0.03358803
409.274	0.03332418
409.487	0.03308541
409.7	0.03276365
409.912	0.03279548
410.125	0.03268284
410.338	0.03270764
410.551	0.03299885
410.764	0.033082
410.976	0.03313751
411.189	0.03307371
411.402	0.03264721
411.615	0.03304389
411.827	0.03326162
412.04	0.03312803
412.253	0.03284368
412.465	0.03262365
412.678	0.03258842
412.891	0.0328641
413.103	0.03260932
413.316	0.0324499
413.529	0.03262582
413.741	0.03277276
413.954	0.03272816
414.166	0.03266499
414.379	0.03267222
414.591	0.03266728
414.804	0.03251159
415.016	0.03223749
415.229	0.03222945
415.441	0.03211334
415.654	0.03211641
415.866	0.0319652
416.079	0.03204758
416.291	0.03194232
416.504	0.03196604
416.716	0.0318051
416.928	0.03194045
417.141	0.03200988
417.353	0.03175475
417.566	0.03149709
417.778	0.03164994
417.99	0.03154003
418.203	0.03131775
418.415	0.03117776
418.627	0.03105674
418.839	0.03100484
419.052	0.0310581
419.264	0.03090454
419.476	0.03092858
419.688	0.03104486
419.901	0.03108884
420.113	0.03105781
420.325	0.03125411
420.537	0.03111247
420.749	0.03100678
420.961	0.03101491
421.174	0.03093974
421.386	0.03057165
421.598	0.03024001
421.81	0.03007748
422.022	0.02991386
422.234	0.03003019
422.446	0.02982866
422.658	0.02993949
422.87	0.03021084
423.082	0.03023081
423.294	0.03006062
423.506	0.03010252
423.718	0.02988174
423.93	0.0299933
424.142	0.02977173
424.354	0.02964995
424.566	0.02943286
424.778	0.02953078
424.99	0.02930663
425.202	0.0290512
425.414	0.02881266
425.625	0.02871411
425.837	0.02850721
426.049	0.02855969
426.261	0.02835043
426.473	0.02820157
426.684	0.02819485
426.896	0.02814905
427.108	0.02787668
427.32	0.02785905
427.531	0.02770848
427.743	0.02754222
427.955	0.02753479
428.167	0.02750944
428.378	0.02730371
428.59	0.02734432
428.802	0.02714268
429.013	0.02714845
429.225	0.02701937
429.436	0.02696078
429.648	0.02681548
429.86	0.02684766
430.071	0.02659691
430.283	0.02651023
430.494	0.02639784
430.706	0.0262939
430.917	0.02598738
431.129	0.02581795
431.34	0.025571
431.552	0.02560128
431.763	0.02560999
431.975	0.02549005
432.186	0.02519746
432.398	0.02528296
432.609	0.02517713
432.821	0.02516014
433.032	0.02493184
433.243	0.02474943
433.455	0.02469841
433.666	0.02458835
433.877	0.02456667
434.089	0.02445949
434.3	0.02440692
434.511	0.02440136
434.723	0.02434576
434.934	0.0241616
435.145	0.02407835
435.356	0.0240218
435.568	0.02397188
435.779	0.02387889
435.99	0.02365982
436.201	0.02354249
436.412	0.0232952
436.624	0.02325434
436.835	0.02307348
437.046	0.02294203
437.257	0.02279947
437.468	0.02284793
437.679	0.02268301
437.89	0.02250541
438.101	0.02243698
438.312	0.02211818
438.523	0.0218575
438.734	0.02159937
438.945	0.02134729
439.156	0.02114234
439.367	0.02115101
439.578	0.02092803
439.789	0.020874
440	0.02091223
440.211	0.02072552
440.422	0.02060996
440.633	0.02051486
440.844	0.02040375
441.055	0.02052705
441.266	0.02038228
441.477	0.02017402
441.687	0.02020035
441.898	0.02006944
442.109	0.02001448
442.32	0.01980369
442.531	0.01962244
442.741	0.01931912
442.952	0.01912674
443.163	0.01906826
443.374	0.01905905
443.584	0.01886199
443.795	0.0187654
444.006	0.01854496
444.216	0.01850585
444.427	0.01842853
444.638	0.0181501
444.848	0.01788443
445.059	0.01776602
445.27	0.01757782
445.48	0.01736598
445.691	0.01732409
445.901	0.01734432
446.112	0.01727265
446.323	0.01730307
446.533	0.01717212
446.744	0.01717078
446.954	0.01708297
447.165	0.01689535
447.375	0.01674249
447.586	0.01663617
447.796	0.01640365
448.006	0.01628236
448.217	0.01609654
448.427	0.01601248
448.638	0.01588833
448.848	0.01564584
449.058	0.01557486
449.269	0.01549915
449.479	0.0152919
449.689	0.01519691
449.9	0.01504078
450.11	0.0151308
450.32	0.01521113
450.531	0.01492744
450.741	0.01478842
450.951	0.01468733
451.161	0.01459292
451.372	0.01458466
451.582	0.01442248
451.792	0.01424758
452.002	0.01425566
452.212	0.01417301
452.422	0.01406818
452.633	0.01389034
452.843	0.01374391
453.053	0.01358756
453.263	0.01336567
453.473	0.0132701
453.683	0.01319254
453.893	0.01307361
454.103	0.01294101
454.313	0.01291926
454.523	0.01282222
454.733	0.01279638
454.943	0.01275255
455.153	0.01257279
455.363	0.01253626
455.573	0.0125113
455.783	0.01219311
455.993	0.01200088
456.203	0.01174784
456.413	0.01152104
456.623	0.01151732
456.833	0.01146263
457.042	0.01133855
457.252	0.01132916
457.462	0.0113768
457.672	0.01152396
457.882	0.01139833
458.091	0.01115015
458.301	0.01094996
458.511	0.01080866
458.721	0.01080076
458.931	0.01056506
459.14	0.01039215
459.35	0.01038033
459.56	0.01040599
459.769	0.0103556
459.979	0.01036831
460.189	0.01023092
460.398	0.0102177
460.608	0.01002658
460.817	0.00991819
461.027	0.00979317
461.237	0.00971329
461.446	0.00967359
461.656	0.00961371
461.865	0.00945535
462.075	0.00945701
462.284	0.00945301
462.494	0.00937261
462.703	0.00938219
462.913	0.00928098
463.122	0.00929912
463.332	0.00927204
463.541	0.00921071
463.751	0.00909911
463.96	0.00902393
464.169	0.00894538
464.379	0.00887532
464.588	0.00873032
464.797	0.0087238
465.007	0.00870391
465.216	0.00859072
465.425	0.00854558
465.635	0.008452
465.844	0.0084013
466.053	0.00831432
466.263	0.00821569
466.472	0.00813388
466.681	0.00796596
466.89	0.00793339
467.099	0.00791103
467.309	0.007821
467.518	0.00779813
467.727	0.00775673
467.936	0.00761767
468.145	0.00769858
468.354	0.00756742
468.563	0.0074656
468.772	0.00743494
468.982	0.00738592
469.191	0.00731586
469.4	0.00729567
469.609	0.0072194
469.818	0.00717308
470.027	0.00711946
470.236	0.00697433
470.445	0.00690541
470.654	0.00684109
470.863	0.00683548
471.072	0.0068933
471.28	0.00690492
471.489	0.00686334
471.698	0.00693261
471.907	0.00683509
472.116	0.00686174
472.325	0.00674005
472.534	0.00661324
472.743	0.00656405
472.951	0.00660677
473.16	0.00644828
473.369	0.00651961
473.578	0.0064761
473.786	0.00638979
473.995	0.00638488
474.204	0.00632928
474.413	0.00622326
474.621	0.0063035
474.83	0.00621838
475.039	0.00612594
475.247	0.00621813
475.456	0.00624223
475.665	0.00623263
475.873	0.00623588
476.082	0.00618897
476.291	0.00609912
476.499	0.00600787
476.708	0.00585198
476.916	0.00580639
477.125	0.00581977
477.333	0.00571882
477.542	0.00567357
477.75	0.00564886
477.959	0.0057857
478.167	0.00587914
478.376	0.005765
478.584	0.00569623
478.793	0.00565301
479.001	0.00559664
479.209	0.00557273
479.418	0.005468
479.626	0.00550925
479.834	0.00555859
480.043	0.00553805
480.251	0.00558572
480.459	0.00560687
480.668	0.00562109
480.876	0.00562908
481.084	0.00559726
481.293	0.00557581
481.501	0.00561095
481.709	0.00558387
481.917	0.00558432
482.125	0.00556441
482.334	0.00551451
482.542	0.00549725
482.75	0.00544343
482.958	0.00538054
483.166	0.00543758
483.374	0.00546905
483.583	0.00549849
483.791	0.00548199
483.999	0.00544552
484.207	0.00542395
484.415	0.0053884
484.623	0.00535207
484.831	0.00529757
485.039	0.00535259
485.247	0.00542964
485.455	0.00539747
485.663	0.0054115
485.871	0.00542471
486.079	0.00536802
486.287	0.00534038
486.495	0.00532893
486.702	0.00527993
486.91	0.00534585
487.118	0.00538021
487.326	0.00543197
487.534	0.00543121
487.742	0.00548632
487.95	0.00542983
488.157	0.0054302
488.365	0.00537586
488.573	0.00535855
488.781	0.0053721
488.988	0.0054164
489.196	0.00537786
489.404	0.00545088
489.612	0.00544151
489.819	0.00547665
490.027	0.00554895
490.235	0.00554493
490.442	0.00557573
490.65	0.00562794
490.857	0.00558045
491.065	0.00565338
491.273	0.00562744
491.48	0.00564872
491.688	0.00568873
491.895	0.00566554
492.103	0.00570568
492.31	0.00573884
492.518	0.00573966
492.725	0.00575068
492.933	0.00573146
493.14	0.00568355
493.348	0.00571535
493.555	0.00565845
493.763	0.00565745
493.97	0.00566625
494.177	0.00570461
494.385	0.00559753
494.592	0.00562691
494.8	0.00561689
495.007	0.00562217
495.214	0.00559903
495.422	0.00560032
495.629	0.00563656
495.836	0.0057683
496.043	0.00579644
496.251	0.00583925
496.458	0.00586236
496.665	0.00591686
496.872	0.00591302
497.08	0.00592882
497.287	0.00592428
497.494	0.00587166
497.701	0.00588614
497.908	0.00589993
498.115	0.00591959
498.322	0.00596344
498.53	0.00602017
498.737	0.00602976
498.944	0.00617018
499.151	0.00622298
499.358	0.00626109
499.565	0.00628994
499.772	0.00635188
499.979	0.00633538
500.186	0.00638603
500.393	0.00634953
500.6	0.00634626
500.807	0.00642179
501.014	0.00638479
501.221	0.00633279
501.427	0.00635388
501.634	0.00636637
501.841	0.00641433
502.048	0.00638112
502.255	0.00641115
502.462	0.00645689
502.669	0.00653812
502.875	0.00656457
503.082	0.00659596
503.289	0.00663488
503.496	0.00676162
503.702	0.00671875
503.909	0.00677177
504.116	0.00679143
504.323	0.00678831
504.529	0.006839
504.736	0.00690007
504.943	0.00690714
505.149	0.00701514
505.356	0.00708119
505.563	0.0070999
505.769	0.00716153
505.976	0.00720302
506.182	0.00722614
506.389	0.0072124
506.595	0.00723907
506.802	0.00723941
507.008	0.00733844
507.215	0.00740469
507.421	0.00743917
507.628	0.00744284
507.834	0.00751545
508.041	0.00755118
508.247	0.00759893
508.454	0.00763099
508.66	0.00767272
508.866	0.00773747
509.073	0.00776872
509.279	0.00786253
509.486	0.00786241
509.692	0.00788354
509.898	0.00793679
510.105	0.0079531
510.311	0.00795606
510.517	0.00803098
510.723	0.00805794
510.93	0.0081229
511.136	0.00821968
511.342	0.00828411
511.548	0.00831534
511.754	0.00835607
511.961	0.00841874
512.167	0.00845387
512.373	0.00851586
512.579	0.00855779
512.785	0.00856579
512.991	0.00863712
513.197	0.00871689
513.404	0.00879444
513.61	0.0088338
513.816	0.00890564
514.022	0.00899282
514.228	0.00904107
514.434	0.0090749
514.64	0.00913818
514.846	0.00910898
515.052	0.00918302
515.258	0.00920101
515.464	0.00920783
515.669	0.00923835
515.875	0.00927836
516.081	0.00929244
516.287	0.00940776
516.493	0.0094598
516.699	0.00950918
516.905	0.00958544
517.111	0.00963399
517.316	0.00976418
517.522	0.00985171
517.728	0.00992478
517.934	0.0099815
518.139	0.01009377
518.345	0.01010628
518.551	0.01018193
518.757	0.01023617
518.962	0.01030255
519.168	0.01030325
519.374	0.01033165
519.579	0.01035653
519.785	0.01043764
519.991	0.01052348
520.196	0.01058788
520.402	0.01064921
520.607	0.01073723
520.813	0.01081889
521.018	0.01087937
521.224	0.01095043
521.429	0.01102332
521.635	0.01106285
521.84	0.01109557
522.046	0.01115215
522.251	0.01125299
522.457	0.01137029
522.662	0.01147919
522.868	0.01155208
523.073	0.01168301
523.279	0.01179414
523.484	0.01188179
523.689	0.01192386
523.895	0.01195606
524.1	0.01201202
524.305	0.01205224
524.511	0.01207293
524.716	0.01210414
524.921	0.01214353
525.126	0.01223796
525.332	0.01226551
525.537	0.01234801
525.742	0.01237618
525.947	0.01245073
526.153	0.01255346
526.358	0.01262266
526.563	0.01263269
526.768	0.01274315
526.973	0.01278475
527.178	0.01289159
527.383	0.01296049
527.588	0.01302832
527.794	0.01310542
527.999	0.0132173
528.204	0.01337252
528.409	0.01347833
528.614	0.01358665
528.819	0.01364548
529.024	0.01372566
529.229	0.01383162
529.434	0.01391646
529.639	0.0139206
529.843	0.01396873
530.048	0.01405509
530.253	0.01416081
530.458	0.01427021
530.663	0.0143571
530.868	0.01447172
531.073	0.01454745
531.278	0.0146246
531.482	0.01470076
531.687	0.01478073
531.892	0.01482925
532.097	0.0149006
532.302	0.01494358
532.506	0.01503644
532.711	0.01514337
532.916	0.01520033
533.12	0.0153065
533.325	0.01541173
533.53	0.01549686
533.734	0.01559802
533.939	0.01570352
534.144	0.01581151
534.348	0.01591451
534.553	0.01600782
534.757	0.01605517
534.962	0.01617099
535.167	0.01624594
535.371	0.01635218
535.576	0.01644173
535.78	0.01653269
535.985	0.01656272
536.189	0.0166978
536.394	0.01677228
536.598	0.01688577
536.803	0.01695839
537.007	0.017012
537.211	0.01711056
537.416	0.01724626
537.62	0.0173108
537.825	0.01739076
538.029	0.01744532
538.233	0.0175394
538.438	0.01762032
538.642	0.01772568
538.846	0.01781548
539.05	0.01791264
539.255	0.01802838
539.459	0.01815669
539.663	0.01825887
539.867	0.01839759
540.072	0.01849432
540.276	0.01857927
540.48	0.01868389
540.684	0.01879475
540.888	0.01891124
541.092	0.01898967
541.297	0.01904221
541.501	0.01912286
541.705	0.0192275
541.909	0.01935473
542.113	0.01948299
542.317	0.01961257
542.521	0.0197531
542.725	0.01993727
542.929	0.02009063
543.133	0.02020811
543.337	0.02032451
543.541	0.02038059
543.745	0.02046174
543.949	0.02058938
544.153	0.02064532
544.357	0.02074024
544.56	0.020856
544.764	0.02092513
544.968	0.02108309
545.172	0.02120516
545.376	0.0213234
545.58	0.02149206
545.783	0.02160098
545.987	0.0217172
546.191	0.02185403
546.395	0.02196974
546.598	0.02210615
546.802	0.022218
547.006	0.02229874
547.21	0.02240688
547.413	0.02254604
547.617	0.02268567
547.821	0.02283629
548.024	0.02295557
548.228	0.02303882
548.431	0.02322128
548.635	0.02338399
548.839	0.02354078
549.042	0.02365445
549.246	0.02374506
549.449	0.02386021
549.653	0.02400808
549.856	0.02407041
550.06	0.02421464
550.263	0.02432924
550.467	0.02445931
550.67	0.02455841
550.874	0.02464401
551.077	0.02475805
551.28	0.02494053
551.484	0.02501092
551.687	0.02510254
551.891	0.02524462
552.094	0.02536341
552.297	0.02556809
552.501	0.02574068
552.704	0.02584493
552.907	0.02595682
553.11	0.02608022
553.314	0.02620916
553.517	0.02635904
553.72	0.02641382
553.923	0.02651249
554.127	0.02661069
554.33	0.0267503
554.533	0.02689415
554.736	0.02700578
554.939	0.02714018
555.142	0.02730198
555.345	0.02741372
555.549	0.02755197
555.752	0.02773624
555.955	0.02784967
556.158	0.0279737
556.361	0.02808405
556.564	0.02822652
556.767	0.02837151
556.97	0.02853862
557.173	0.02860775
557.376	0.02876626
557.579	0.02891077
557.782	0.02907472
557.984	0.02920625
558.187	0.0293213
558.39	0.02946298
558.593	0.02962566
558.796	0.02978892
558.999	0.02994444
559.202	0.0300591
559.404	0.03021625
559.607	0.03038537
559.81	0.03051776
560.013	0.03068389
560.216	0.0307777
560.418	0.03090267
560.621	0.03104485
560.824	0.03117364
561.026	0.03131662
561.229	0.03144584
561.432	0.03161259
561.634	0.03178406
561.837	0.03194448
562.04	0.03213495
562.242	0.03229254
562.445	0.03246917
562.647	0.03262932
562.85	0.03271809
563.053	0.03288526
563.255	0.03301145
563.458	0.03315477
563.66	0.03332596
563.863	0.03346966
564.065	0.03361558
564.268	0.03377396
564.47	0.03390132
564.672	0.03407244
564.875	0.03419977
565.077	0.03432698
565.28	0.03445033
565.482	0.03463966
565.684	0.03481422
565.887	0.0350023
566.089	0.03517821
566.291	0.0353521
566.494	0.03549999
566.696	0.03568738
566.898	0.03581469
567.1	0.03595064
567.303	0.03608992
567.505	0.03623672
567.707	0.03636566
567.909	0.03655331
568.111	0.03669484
568.314	0.03685787
568.516	0.03706665
568.718	0.03725349
568.92	0.03743355
569.122	0.03761126
569.324	0.03777798
569.526	0.03792904
569.728	0.03806943
569.93	0.03820605
570.132	0.0383417
570.334	0.03848543
570.536	0.03863551
570.738	0.03878653
570.94	0.03895502
571.142	0.03913407
571.344	0.03929567
571.546	0.03941292
571.748	0.03956316
571.95	0.03973656
572.152	0.03985001
572.354	0.03997935
572.555	0.04016292
572.757	0.04035404
572.959	0.04055376
573.161	0.04072942
573.363	0.04087144
573.564	0.04110977
573.766	0.04129633
573.968	0.04144499
574.17	0.04157629
574.371	0.04171775
574.573	0.04183391
574.775	0.04200161
574.976	0.04209681
575.178	0.04225177
575.38	0.04239105
575.581	0.04256928
575.783	0.04273782
575.985	0.04291143
576.186	0.0431053
576.388	0.04329975
576.589	0.04344904
576.791	0.04366653
576.992	0.04382526
577.194	0.04400223
577.395	0.04420412
577.597	0.04436456
577.798	0.04454155
578	0.04474209
578.201	0.04489244
578.402	0.04504172
578.604	0.04521739
578.805	0.04538215
579.007	0.0455378
579.208	0.04569885
579.409	0.04584714
579.611	0.04600634
579.812	0.04624394
580.013	0.04640907
580.215	0.0465664
580.416	0.04671306
580.617	0.04684984
580.818	0.04700123
581.019	0.04715557
581.221	0.04727037
581.422	0.04744678
581.623	0.04760034
581.824	0.04778161
582.025	0.04798153
582.226	0.04814107
582.428	0.04832609
582.629	0.04847445
582.83	0.04864322
583.031	0.04883359
583.232	0.04898914
583.433	0.04913765
583.634	0.04934646
583.835	0.04950504
584.036	0.04965094
584.237	0.04978587
584.438	0.04992482
584.639	0.05010275
584.84	0.05029137
585.041	0.05048663
585.242	0.05064759
585.442	0.05085989
585.643	0.05103884
585.844	0.05124852
586.045	0.05141859
586.246	0.05154628
586.447	0.05166524
586.647	0.05181305
586.848	0.05192849
587.049	0.05210326
587.25	0.05223492
587.45	0.0524003
587.651	0.05259598
587.852	0.05272746
588.053	0.05295096
588.253	0.05312701
588.454	0.05324443
588.655	0.05340412
588.855	0.05358594
589.056	0.05369923
589.256	0.05389335
589.457	0.05400371
589.658	0.05418342
589.858	0.05438759
590.059	0.05457615
590.259	0.05473128
590.46	0.05495194
590.66	0.05510153
590.861	0.05527367
591.061	0.0554279
591.262	0.05557666
591.462	0.05572749
591.662	0.05590168
591.863	0.05602508
592.063	0.05622288
592.264	0.05638603
592.464	0.05656269
592.664	0.05674014
592.865	0.05692991
593.065	0.0570755
593.265	0.05728594
593.465	0.05743805
593.666	0.05760646
593.866	0.05774322
594.066	0.05790174
594.266	0.05800426
594.467	0.05817627
594.667	0.05827285
594.867	0.05843543
595.067	0.05854734
595.267	0.05870025
595.467	0.05882315
595.668	0.05897276
595.868	0.0591278
596.068	0.05932177
596.268	0.05947214
596.468	0.05966997
596.668	0.05981559
596.868	0.05997939
597.068	0.06012345
597.268	0.06024949
597.468	0.06038967
597.668	0.06053595
597.868	0.06071163
598.068	0.0609384
598.268	0.06111549
598.467	0.06133104
598.667	0.06144501
598.867	0.06157732
599.067	0.0617712
599.267	0.06190592
599.467	0.06198393
599.667	0.06210353
599.866	0.06221114
600.066	0.06240636
600.266	0.06252308
600.466	0.06265893
600.665	0.06278377
600.865	0.06297965
601.065	0.06316114
601.264	0.06327039
601.464	0.06337945
601.664	0.06354762
601.863	0.06363903
602.063	0.06377987
602.263	0.06385125
602.462	0.06398456
602.662	0.06416397
602.861	0.06434621
603.061	0.06449184
603.26	0.06463801
603.46	0.06474358
603.659	0.06487734
603.859	0.06499306
604.058	0.06510711
604.258	0.06522385
604.457	0.06539374
604.657	0.06549015
604.856	0.06560985
605.056	0.06577303
605.255	0.0658985
605.454	0.06605504
605.654	0.06615895
605.853	0.06625992
606.052	0.06640216
606.252	0.06658397
606.451	0.06676085
606.65	0.06695149
606.849	0.06708207
607.049	0.06725081
607.248	0.06738897
607.447	0.06753253
607.646	0.067647
607.845	0.06776533
608.045	0.06777949
608.244	0.06793691
608.443	0.06803474
608.642	0.06817779
608.841	0.06829106
609.04	0.0683429
609.239	0.06844614
609.438	0.06858183
609.637	0.06866855
609.836	0.06880649
610.035	0.06889311
610.234	0.06903227
610.433	0.06920844
610.632	0.06930998
610.831	0.06949022
611.03	0.06960434
611.229	0.06973233
611.428	0.06986246
611.627	0.07000559
611.826	0.07010861
612.025	0.07026856
612.224	0.0703886
612.422	0.07053144
612.621	0.07067426
612.82	0.07079804
613.019	0.07090015
613.218	0.07102436
613.416	0.07107604
613.615	0.07118932
613.814	0.07130557
614.012	0.07139823
614.211	0.07149566
614.41	0.07166898
614.608	0.07181771
614.807	0.07196002
615.006	0.0721062
615.204	0.07223519
615.403	0.07238102
615.602	0.07248598
615.8	0.07255643
615.999	0.07263058
616.197	0.07273599
616.396	0.072875
616.594	0.07295945
616.793	0.07305605
616.991	0.07315211
617.19	0.07323726
617.388	0.07341198
617.586	0.07353968
617.785	0.07358751
617.983	0.07369536
618.182	0.07379767
618.38	0.07391255
618.578	0.0740217
618.777	0.07410625
618.975	0.07422123
619.173	0.07432506
619.372	0.07443148
619.57	0.07451822
619.768	0.07466131
619.966	0.07478323
620.165	0.07486167
620.363	0.07496025
620.561	0.07503528
620.759	0.07511028
620.957	0.07524326
621.155	0.07536959
621.354	0.07544519
621.552	0.075565
621.75	0.07565139
621.948	0.07580713
622.146	0.07594077
622.344	0.07602625
622.542	0.07613234
622.74	0.07625792
622.938	0.07632439
623.136	0.07644047
623.334	0.07654558
623.532	0.076592
623.73	0.07668996
623.928	0.07678681
624.126	0.07688003
624.324	0.07701465
624.522	0.07706528
624.719	0.07708863
624.917	0.07726519
625.115	0.07729637
625.313	0.07736206
625.511	0.07749748
625.708	0.07754741
625.906	0.07759491
626.104	0.07769928
626.302	0.07778395
626.499	0.07790927
626.697	0.07799038
626.895	0.0780285
627.093	0.07814729
627.29	0.07834341
627.488	0.07847123
627.686	0.07853207
627.883	0.07857416
628.081	0.07863289
628.278	0.07882028
628.476	0.07885474
628.673	0.07894475
628.871	0.07906238
629.068	0.07917577
629.266	0.07929628
629.463	0.07938865
629.661	0.07939545
629.858	0.07949558
630.056	0.07956366
630.253	0.07958067
630.451	0.07962197
630.648	0.07969969
630.845	0.07978555
631.043	0.07985935
631.24	0.0800085
631.438	0.08007193
631.635	0.08016389
631.832	0.08022957
632.029	0.0803343
632.227	0.08042166
632.424	0.08050277
632.621	0.08052533
632.818	0.08057991
633.016	0.08065766
633.213	0.08073354
633.41	0.08082473
633.607	0.08092647
633.804	0.08098089
634.001	0.08105065
634.199	0.08118955
634.396	0.08127521
634.593	0.08132605
634.79	0.08138642
634.987	0.08146355
635.184	0.08154499
635.381	0.0816399
635.578	0.08168917
635.775	0.08173733
635.972	0.08185587
636.169	0.08192221
636.366	0.08195446
636.563	0.08202937
636.76	0.08207765
636.957	0.08215856
637.153	0.08219281
637.35	0.08227728
637.547	0.08234176
637.744	0.08238305
637.941	0.08246603
638.138	0.08255383
638.334	0.0825352
638.531	0.08261602
638.728	0.08262682
638.925	0.08271339
639.121	0.08279417
639.318	0.08284679
639.515	0.08289963
639.711	0.08305981
639.908	0.08311244
640.105	0.08322829
640.301	0.08326321
640.498	0.08332583
640.695	0.08342397
640.891	0.08341848
641.088	0.08343112
641.284	0.08358229
641.481	0.08358528
641.677	0.08366682
641.874	0.0837536
642.07	0.08380345
642.267	0.08398858
642.463	0.08406278
642.66	0.08409577
642.856	0.08417157
643.053	0.0842228
643.249	0.08424151
643.445	0.08430457
643.642	0.08430118
643.838	0.08441927
644.034	0.08448449
644.231	0.08454278
644.427	0.08462892
644.623	0.08469049
644.82	0.08474659
645.016	0.0848325
645.212	0.08477658
645.408	0.08480983
645.604	0.08494374
645.801	0.08499651
645.997	0.08507337
646.193	0.08509329
646.389	0.08518
646.585	0.08528838
646.781	0.08536134
646.977	0.08537171
647.173	0.08537606
647.37	0.08539872
647.566	0.08550274
647.762	0.0855259
647.958	0.08561687
648.154	0.08566567
648.35	0.0857389
648.546	0.085825
648.742	0.08595061
648.937	0.08591089
649.133	0.08594734
649.329	0.08600837
649.525	0.0860632
649.721	0.08607434
649.917	0.08620552
650.113	0.08620592
650.309	0.08631215
650.504	0.08636275
650.7	0.08638791
650.896	0.0864887
651.092	0.08656222
651.287	0.08657703
651.483	0.08669443
651.679	0.0867659
651.875	0.08686486
652.07	0.08694854
652.266	0.08696374
652.462	0.08704669
652.657	0.08708059
652.853	0.08710782
653.048	0.0871533
653.244	0.08715334
653.44	0.08715799
653.635	0.08719265
653.831	0.08728079
654.026	0.08739631
654.222	0.08744715
654.417	0.08752104
654.613	0.08764078
654.808	0.08771599
655.004	0.087836
655.199	0.0878398
655.394	0.0878299
655.59	0.0879099
655.785	0.0879505
655.98	0.08795749
656.176	0.08796998
656.371	0.08799331
656.566	0.08804645
656.762	0.08804845
656.957	0.0881013
657.152	0.08813619
657.348	0.08819805
657.543	0.08833044
657.738	0.08835907
657.933	0.08836741
658.128	0.08843928
658.324	0.08846456
658.519	0.08849712
658.714	0.08856994
658.909	0.08857931
659.104	0.08864046
659.299	0.08875464
659.494	0.08878495
659.689	0.08883225
659.884	0.08887778
660.079	0.0889126
660.274	0.08898203
660.469	0.08905918
660.664	0.08911473
660.859	0.08915809
661.054	0.08920752
661.249	0.08925432
661.444	0.08931428
661.639	0.08930863
661.834	0.08930116
662.029	0.08934395
662.224	0.08949051
662.418	0.08958751
662.613	0.08965199
662.808	0.08970058
663.003	0.08981447
663.198	0.08990525
663.392	0.08992829
663.587	0.09001564
663.782	0.09004245
663.977	0.09012576
664.171	0.09019655
664.366	0.09025159
664.561	0.09028652
664.755	0.09037879
664.95	0.09034309
665.144	0.09035583
665.339	0.09040839
665.534	0.0904616
665.728	0.09052386
665.923	0.09061132
666.117	0.0906305
666.312	0.09066687
666.506	0.09078762
666.701	0.09084131
666.895	0.09087037
667.09	0.09090146
667.284	0.09098346
667.479	0.09105768
667.673	0.0911356
667.867	0.09118851
668.062	0.09127584
668.256	0.09133911
668.45	0.0914446
668.645	0.09140785
668.839	0.09147916
669.033	0.09156528
669.228	0.09160997
669.422	0.09164782
669.616	0.09170447
669.81	0.09173171
670.004	0.09184255
670.199	0.09188535
670.393	0.09192945
670.587	0.09200916
670.781	0.09205071
670.975	0.09216251
671.169	0.09218731
671.363	0.09222122
671.558	0.09229216
671.752	0.09235232
671.946	0.09240001
672.14	0.09249483
672.334	0.09246568
672.528	0.09261162
672.722	0.09272379
672.916	0.09280666
673.11	0.09287282
673.304	0.09298852
673.497	0.09303871
673.691	0.09316148
673.885	0.09314382
674.079	0.09320318
674.273	0.09321779
674.467	0.09328693
674.661	0.09329982
674.854	0.09336842
675.048	0.09343968
675.242	0.09350972
675.436	0.09352413
675.629	0.09358099
675.823	0.09363177
676.017	0.09371066
676.211	0.09372558
676.404	0.09380575
676.598	0.09385255
676.792	0.09395367
676.985	0.09405343
677.179	0.09411798
677.372	0.09413206
677.566	0.0942778
677.76	0.09432285
677.953	0.09442543
678.147	0.09452297
678.34	0.0945908
678.534	0.09462804
678.727	0.09472986
678.921	0.09485195
679.114	0.09486938
679.307	0.09498713
679.501	0.09504788
679.694	0.09516136
679.888	0.09527118
680.081	0.09534769
680.274	0.09533605
680.468	0.09548898
680.661	0.09547756
680.854	0.09560603
681.048	0.09564532
681.241	0.0957385
681.434	0.09581353
681.627	0.0958914
681.821	0.09594368
682.014	0.09612267
682.207	0.09614072
682.4	0.09622699
682.593	0.09635636
682.786	0.09642236
682.98	0.09647446
683.173	0.0965484
683.366	0.09656998
683.559	0.09661316
683.752	0.09666998
683.945	0.09672787
684.138	0.09682972
684.331	0.09692556
684.524	0.09704457
684.717	0.09710299
684.91	0.09729264
685.103	0.0974027
685.296	0.09749111
685.489	0.09758509
685.682	0.09767694
685.874	0.09773559
686.067	0.09783518
686.26	0.09786383
686.453	0.09790518
686.646	0.09792419
686.839	0.09798643
687.031	0.09811396
687.224	0.09817427
687.417	0.09829798
687.61	0.09838627
687.802	0.09850713
687.995	0.09861678
688.188	0.09870823
688.38	0.09876485
688.573	0.09889255
688.766	0.09894806
688.958	0.09895298
689.151	0.0990074
689.343	0.09908446
689.536	0.09916687
689.729	0.09923489
689.921	0.09928364
690.114	0.09933345
690.306	0.0994863
690.499	0.09957496
690.691	0.09965023
690.884	0.09973405
691.076	0.09981099
691.268	0.09991183
691.461	0.10000136
691.653	0.10004536
691.846	0.10016847
692.038	0.10029688
692.23	0.1003911
692.423	0.10047407
692.615	0.10053909
692.807	0.10059457
692.999	0.10073811
693.192	0.10078556
693.384	0.10087952
693.576	0.1009568
693.768	0.10105795
693.961	0.10112682
694.153	0.10129312
694.345	0.10135613
694.537	0.10142606
694.729	0.10144514
694.921	0.10148955
695.113	0.10158539
695.305	0.10168379
695.498	0.10170546
695.69	0.10178942
695.882	0.10188964
696.074	0.10201753
696.266	0.10212225
696.458	0.10222701
696.65	0.10232144
696.842	0.10243917
697.033	0.10252942
697.225	0.10266297
697.417	0.10279185
697.609	0.10292812
697.801	0.10302737
697.993	0.10320073
698.185	0.10328631
698.376	0.1034186
698.568	0.10348827
698.76	0.10359434
698.952	0.10364223
699.144	0.10368809
699.335	0.10376764
699.527	0.10386538
699.719	0.10395339
699.91	0.10410057
700.102	0.10412946
700.294	0.10425822
700.485	0.10438966
700.677	0.10444148
700.869	0.1045818
701.06	0.1046881
701.252	0.1047378
701.443	0.10483659
701.635	0.10493489
701.826	0.10504159
702.018	0.10514451
702.209	0.10523167
702.401	0.10524179
702.592	0.10535291
702.784	0.10545273
702.975	0.1055685
703.166	0.10565633
703.358	0.10570604
703.549	0.10579731
703.741	0.10597652
703.932	0.10604961
704.123	0.10615132
704.315	0.10623812
704.506	0.10634299
704.697	0.10649086
704.888	0.1066058
705.08	0.10671634
705.271	0.10686081
705.462	0.10692545
705.653	0.10700947
705.844	0.10706565
706.035	0.10718988
706.227	0.10725228
706.418	0.1073047
706.609	0.10739967
706.8	0.1076056
706.991	0.1076866
707.182	0.10783852
707.373	0.10785569
707.564	0.10798318
707.755	0.10806565
707.946	0.10810816
708.137	0.10815832
708.328	0.10827651
708.519	0.10839313
708.71	0.10852957
708.901	0.10859723
709.092	0.10870985
709.283	0.10878434
709.473	0.10888687
709.664	0.10903332
709.855	0.1090801
710.046	0.10921777
710.237	0.10936109
710.427	0.10951655
710.618	0.10971792
710.809	0.10981996
711	0.1098984
711.19	0.11000071
711.381	0.11012527
711.572	0.1102377
711.762	0.1103354
711.953	0.11039989
712.144	0.11051991
712.334	0.11062282
712.525	0.1107243
712.715	0.11081815
712.906	0.11085438
713.097	0.11087379
713.287	0.11095374
713.478	0.11098833
713.668	0.11103445
713.859	0.11115884
714.049	0.1112088
714.239	0.11135242
714.43	0.11149941
714.62	0.11163447
714.811	0.11181193
715.001	0.11197745
715.191	0.11205624
715.382	0.11213588
715.572	0.11224882
715.762	0.11230693
715.953	0.11238327
716.143	0.11242256
716.333	0.11250007
716.523	0.11259514
716.714	0.11278097
716.904	0.11284038
717.094	0.11298627
717.284	0.11309203
717.474	0.11320584
717.664	0.1133484
717.855	0.11347344
718.045	0.11354287
718.235	0.11366766
718.425	0.11382943
718.615	0.11396202
718.805	0.11412588
718.995	0.11421722
719.185	0.11435048
719.375	0.11447226
719.565	0.11458398
719.755	0.11465245
719.945	0.11479648
720.135	0.11488527
720.325	0.11499748
720.515	0.11512444
720.704	0.11524716
720.894	0.11541795
721.084	0.11556034
721.274	0.11565048
721.464	0.11577459
721.654	0.11588503
721.843	0.11598089
722.033	0.11606313
722.223	0.11617211
722.413	0.11628316
722.602	0.11639652
722.792	0.11653041
722.982	0.11665771
723.171	0.11673455
723.361	0.11684856
723.55	0.1169432
723.74	0.11699483
723.93	0.11710407
724.119	0.11716749
724.309	0.11728477
724.498	0.11741005
724.688	0.11750878
724.877	0.11758795
725.067	0.11771077
725.256	0.11778113
725.446	0.11789443
725.635	0.11794143
725.825	0.11805801
726.014	0.11814763
726.203	0.11824963
726.393	0.11835683
726.582	0.11845854
726.771	0.11857006
726.961	0.11865116
727.15	0.11866593
727.339	0.11872601
727.529	0.11880423
727.718	0.11881917
727.907	0.11885269
728.096	0.11887862
728.286	0.11894102
728.475	0.11908253
728.664	0.1191705
728.853	0.1192535
729.042	0.11934126
729.231	0.11943659
729.42	0.1194902
729.609	0.11952707
729.799	0.1195315
729.988	0.11963945
730.177	0.11962679
730.366	0.11974829
730.555	0.11982287
730.744	0.11992713
730.933	0.12004433
731.122	0.1201361
731.31	0.1202081
731.499	0.1202848
731.688	0.12033661
731.877	0.12036335
732.066	0.12041293
732.255	0.12047433
732.444	0.12054351
732.632	0.12060156
732.821	0.12069135
733.01	0.1207091
733.199	0.12076958
733.388	0.1208463
733.576	0.12091099
733.765	0.12100403
733.954	0.12107656
734.142	0.12119063
734.331	0.12129776
734.52	0.12140343
734.708	0.12147478
734.897	0.12154491
735.086	0.12158815
735.274	0.12160069
735.463	0.12163459
735.651	0.12169069
735.84	0.12172094
736.028	0.12182591
736.217	0.12190063
736.405	0.12198145
736.594	0.12204847
736.782	0.1221478
736.971	0.1222218
737.159	0.12227671
737.347	0.12229004
737.536	0.12233199
737.724	0.12239129
737.912	0.12243609
738.101	0.12239854
738.289	0.12242317
738.477	0.12254064
738.666	0.12258547
738.854	0.12263869
739.042	0.1226678
739.23	0.12271373
739.418	0.12283614
739.607	0.12292677
739.795	0.12296556
739.983	0.12304952
740.171	0.12312
740.359	0.12315442
740.547	0.12324037
740.735	0.12329199
740.923	0.12334953
741.112	0.12345351
741.3	0.12350052
741.488	0.12354026
741.676	0.12364041
741.864	0.1237215
742.052	0.12385135
742.239	0.12387968
742.427	0.12390136
742.615	0.12398841
742.803	0.12405887
742.991	0.12407091
743.179	0.12409102
743.367	0.12408795
743.555	0.12418356
743.742	0.12423094
743.93	0.12429166
744.118	0.12438284
744.306	0.12448142
744.494	0.12453977
744.681	0.12453207
744.869	0.12448377
745.057	0.1245525
745.244	0.12457513
745.432	0.12460301
745.62	0.12468414
745.807	0.12473959
745.995	0.12482845
746.182	0.12495843
746.37	0.12493445
746.558	0.12498386
746.745	0.12502533
746.933	0.12500958
747.12	0.12504964
747.308	0.125111
747.495	0.12515672
747.683	0.12522661
747.87	0.12527416
748.057	0.1253012
748.245	0.12533564
748.432	0.12544281
748.62	0.12547354
748.807	0.12548343
748.994	0.12555268
749.182	0.12554335
749.369	0.1255417
749.556	0.12561769
749.743	0.12560048
749.931	0.12561394
750.118	0.12568848
750.305	0.12573341
750.492	0.12574144
750.68	0.12583317
750.867	0.12583754
751.054	0.12589795
751.241	0.12593409
751.428	0.12594833
751.615	0.12596505
751.802	0.12607029
751.989	0.12607358
752.176	0.12611401
752.363	0.12610847
752.55	0.12615601
752.737	0.12615866
752.924	0.12615274
753.111	0.1261198
753.298	0.12615978
753.485	0.12626141
753.672	0.12634797
753.859	0.1263672
754.046	0.12641944
754.233	0.1264582
754.42	0.1265351
754.606	0.12653179
754.793	0.12649478
754.98	0.12645563
755.167	0.1264613
755.353	0.1264811
755.54	0.12652248
755.727	0.12652469
755.914	0.12651932
756.1	0.12653864
756.287	0.12654288
756.474	0.12650352
756.66	0.12649067
756.847	0.12647209
757.033	0.12644854
757.22	0.126483
757.407	0.12644586
757.593	0.12647554
757.78	0.12654804
757.966	0.12655956
758.153	0.12658691
758.339	0.12661955
758.526	0.12661778
758.712	0.12663195
758.898	0.12664919
759.085	0.12661868
759.271	0.12660902
759.458	0.12663683
759.644	0.12672088
759.83	0.12678642
760.017	0.12682127
760.203	0.12683521
760.389	0.12684743
760.576	0.12689061
760.762	0.12689328
760.948	0.12678953
761.134	0.12674691
761.32	0.12675343
761.507	0.12674105
761.693	0.12676637
761.879	0.12674392
762.065	0.12672805
762.251	0.12677161
762.437	0.12681467
762.623	0.12679882
762.809	0.12678198
762.995	0.12680974
763.181	0.12681411
763.367	0.12676424
763.553	0.12672707
763.739	0.12673883
763.925	0.12672918
764.111	0.12670498
764.297	0.12666628
764.483	0.12666286
764.669	0.12662628
764.855	0.12662374
765.041	0.12655499
765.227	0.12652086
765.412	0.12648345
765.598	0.12649045
765.784	0.12650715
765.97	0.1265904
766.156	0.12657112
766.341	0.1265895
766.527	0.12659981
766.713	0.12657559
766.898	0.12651334
767.084	0.12645259
767.27	0.12642981
767.455	0.1264221
767.641	0.12637302
767.827	0.1263599
768.012	0.12640816
768.198	0.12645004
768.383	0.12645021
768.569	0.126401
768.754	0.1263664
768.94	0.12633232
769.125	0.12630962
769.311	0.12627371
769.496	0.12624436
769.682	0.12626053
769.867	0.12626155
770.052	0.12629052
770.238	0.12634071
770.423	0.12632598
770.608	0.1262458
770.794	0.12617226
770.979	0.12606801
771.164	0.12600696
771.35	0.12594877
771.535	0.12584287
771.72	0.12576689
771.905	0.12584749
772.09	0.12583462
772.276	0.12584245
772.461	0.12581556
772.646	0.12576292
772.831	0.12578223
773.016	0.12577979
773.201	0.12566925
773.386	0.12561255
773.571	0.12552999
773.756	0.1254874
773.941	0.12541459
774.126	0.12530743
774.311	0.12519794
774.496	0.12516631
774.681	0.12514506
774.866	0.12509981
775.051	0.1250367
775.236	0.12503031
775.421	0.12494771
775.606	0.12490994
775.791	0.12484248
775.976	0.12479695
776.16	0.12477654
776.345	0.12476044
776.53	0.12471218
776.715	0.12472014
776.899	0.12469135
777.084	0.12470894
777.269	0.12464035
777.454	0.12452372
777.638	0.12445382
777.823	0.12442931
778.008	0.12434154
778.192	0.1242754
778.377	0.1241612
778.561	0.12412644
778.746	0.12418565
778.931	0.12411054
779.115	0.12400331
779.3	0.12398654
779.484	0.12395371
779.669	0.12386129
779.853	0.12375733
780.037	0.12363788
780.222	0.12356409
780.406	0.12353131
780.591	0.12342879
780.775	0.12330012
780.959	0.12323698
781.144	0.12316099
781.328	0.12305265
781.512	0.12299775
781.697	0.12288049
781.881	0.12278122
782.065	0.12274357
782.249	0.12263399
782.434	0.12255768
782.618	0.12246334
782.802	0.12238382
782.986	0.12230037
783.17	0.12229218
783.354	0.12220332
783.539	0.12217078
783.723	0.12206683
783.907	0.12197891
784.091	0.12188255
784.275	0.12179343
784.459	0.12168927
784.643	0.12165803
784.827	0.12160915
785.011	0.12156366
785.195	0.12152279
785.379	0.12143673
785.563	0.12136546
785.747	0.12128736
785.93	0.1211254
786.114	0.12093072
786.298	0.12085907
786.482	0.12076937
786.666	0.1206911
786.85	0.12066085
787.033	0.12056575
787.217	0.12054172
787.401	0.12052683
787.585	0.12043952
787.768	0.12036378
787.952	0.12027532
788.136	0.12009166
788.319	0.11999749
788.503	0.11989531
788.687	0.11982329
788.87	0.11976239
789.054	0.11963731
789.237	0.11957527
789.421	0.11952997
789.605	0.11941257
789.788	0.11930975
789.972	0.11918984
790.155	0.11905293
790.338	0.11891613
790.522	0.11879751
790.705	0.11868106
790.889	0.11864455
791.072	0.11855703
791.256	0.11844003
791.439	0.11829728
791.622	0.11823796
791.806	0.11818002
791.989	0.11808282
792.172	0.11797967
792.355	0.11780123
792.539	0.11769184
792.722	0.11755653
792.905	0.11744738
793.088	0.11726431
793.271	0.11716739
793.455	0.11703731
793.638	0.11703973
793.821	0.11695952
794.004	0.1169564
794.187	0.11686585
794.37	0.11672582
794.553	0.11661504
794.736	0.11645238
794.919	0.1162399
795.102	0.11606594
795.285	0.11592349
795.468	0.11577213
795.651	0.11566517
795.834	0.11554605
796.017	0.11548062
796.2	0.1154741
796.383	0.11540871
796.566	0.11527991
796.749	0.11519879
796.931	0.11509546
797.114	0.11499069
797.297	0.11485064
797.48	0.11463198
797.663	0.11450057
797.845	0.11435584
798.028	0.11427688
798.211	0.11417461
798.393	0.11405213
798.576	0.11390183
798.759	0.11383063
798.941	0.11375448
799.124	0.1136607
799.307	0.11346463
799.489	0.11335523
799.672	0.1131616
799.854	0.11302282
800.037	0.11291426
800.219	0.11275804
800.402	0.11267749
800.584	0.11262371
800.767	0.11254345
800.949	0.11248023
801.132	0.11242914
801.314	0.11227067
801.496	0.11216071
801.679	0.11199639
801.861	0.11184015
802.043	0.11168993
802.226	0.1115301
802.408	0.11137666
802.59	0.11129807
802.772	0.11116439
802.955	0.11104017
803.137	0.11092993
803.319	0.11076378
803.501	0.11067124
803.684	0.11055944
803.866	0.11033317
804.048	0.11017178
804.23	0.1100297
804.412	0.10987843
804.594	0.10977721
804.776	0.10965281
804.958	0.10948792
805.14	0.10940625
805.322	0.10930965
805.504	0.10917378
805.686	0.10902856
805.868	0.10886601
806.05	0.10866566
806.232	0.10846992
806.414	0.10829241
806.596	0.10815746
806.778	0.10800577
806.96	0.10785648
807.141	0.10773069
807.323	0.10767089
807.505	0.10756896
807.687	0.10739605
807.869	0.10722899
808.05	0.10711125
808.232	0.10694888
808.414	0.10678823
808.595	0.10655799
808.777	0.10641065
808.959	0.1063133
809.14	0.10620616
809.322	0.10609367
809.504	0.10595246
809.685	0.10585583
809.867	0.10579798
810.048	0.1056537
810.23	0.10553791
810.411	0.1053959
810.593	0.10526712
810.774	0.10512861
810.956	0.1049037
811.137	0.10471544
811.319	0.10461366
811.5	0.10446961
811.681	0.10426255
811.863	0.1040921
812.044	0.10395968
812.225	0.10382609
812.407	0.1037138
812.588	0.10351905
812.769	0.10335129
812.951	0.1032368
813.132	0.10304583
813.313	0.10288791
813.494	0.10274092
813.675	0.10262923
813.857	0.10252949
814.038	0.10236003
814.219	0.10221541
814.4	0.10203024
814.581	0.10196906
814.762	0.10184724
814.943	0.10160034
815.124	0.10143123
815.305	0.10131946
815.486	0.10111072
815.667	0.10098886
815.848	0.10075073
816.029	0.10056847
816.21	0.1004028
816.391	0.10022828
816.572	0.10013646
816.753	0.10007279
816.934	0.09990067
817.115	0.09972985
817.295	0.09960696
817.476	0.09942356
817.657	0.09929995
817.838	0.09907536
818.019	0.09885014
818.199	0.09868487
818.38	0.09852229
818.561	0.09829791
818.741	0.09818684
818.922	0.09804365
819.103	0.09793144
819.283	0.09775539
819.464	0.0975644
819.645	0.09745767
819.825	0.0973725
820.006	0.0971827
820.186	0.09699695
820.367	0.09680865
820.547	0.09665363
820.728	0.09654768
820.908	0.09631888
821.089	0.09615557
821.269	0.09598766
821.45	0.09582698
821.63	0.09558519
821.81	0.09543164
821.991	0.0952139
822.171	0.09510878
822.351	0.09492163
822.532	0.09472318
822.712	0.09448776
822.892	0.09437619
823.072	0.09423014
823.253	0.09406222
823.433	0.09384908
823.613	0.09362491
823.793	0.09353545
823.973	0.09343232
824.154	0.09325966
824.334	0.09303818
824.514	0.09291877
824.694	0.09274138
824.874	0.09259108
825.054	0.09242831
825.234	0.09219489
825.414	0.09198289
825.594	0.0918607
825.774	0.09175096
825.954	0.09162056
826.134	0.09152474
826.314	0.09135104
826.494	0.09126454
826.674	0.0910703
826.854	0.09086076
827.033	0.09057032
827.213	0.09037739
827.393	0.09010412
827.573	0.08994193
827.753	0.08972389
827.932	0.08963416
828.112	0.08948019
828.292	0.08935943
828.472	0.08915998
828.651	0.08908966
828.831	0.08892304
829.011	0.08874434
829.19	0.08856754
829.37	0.08839938
829.549	0.08822536
829.729	0.08809487
829.909	0.08780819
830.088	0.08755232
830.268	0.08733805
830.447	0.08710202
830.627	0.08689473
830.806	0.08672649
830.986	0.08653021
831.165	0.08638869
831.344	0.08635804
831.524	0.08623349
831.703	0.0860996
831.883	0.0859707
832.062	0.08571621
832.241	0.08548681
832.421	0.08532064
832.6	0.08502941
832.779	0.08481671
832.958	0.08461833
833.138	0.08440423
833.317	0.08431024
833.496	0.08422922
833.675	0.08405813
833.854	0.08387831
834.034	0.08374918
834.213	0.08353436
834.392	0.08336805
834.571	0.08312766
834.75	0.08283861
834.929	0.08263361
835.108	0.08248302
835.287	0.08235714
835.466	0.0822146
835.645	0.08203708
835.824	0.08189758
836.003	0.08180797
836.182	0.08175253
836.361	0.08155845
836.54	0.08130783
836.719	0.08118804
836.897	0.08100787
837.076	0.08085261
837.255	0.08068785
837.434	0.08048886
837.613	0.08032049
837.791	0.08017836
837.97	0.08000616
838.149	0.07984389
838.328	0.07965784
838.506	0.0794964
838.685	0.07930295
838.864	0.07922188
839.042	0.07900331
839.221	0.07874904
839.4	0.07857736
839.578	0.07835365
839.757	0.07805393
839.935	0.07776402
840.114	0.07759059
840.292	0.0774753
840.471	0.07735331
840.649	0.07719168
840.828	0.07707881
841.006	0.07703764
841.185	0.07693096
841.363	0.07665321
841.541	0.07642057
841.72	0.0762351
841.898	0.07602666
842.076	0.0758242
842.255	0.07554622
842.433	0.07532119
842.611	0.07514144
842.789	0.07501314
842.968	0.07494126
843.146	0.07479869
843.324	0.07468609
843.502	0.07455986
843.68	0.07451772
843.859	0.07440939
844.037	0.07423745
844.215	0.07397883
844.393	0.07380724
844.571	0.07363131
844.749	0.07345209
844.927	0.07313878
845.105	0.07287277
845.283	0.07259917
845.461	0.0723668
845.639	0.07217996
845.817	0.07197424
845.995	0.07187099
846.173	0.0717153
846.351	0.07163776
846.529	0.07156591
846.706	0.07146467
846.884	0.0713274
847.062	0.07115969
847.24	0.07097517
847.418	0.0708461
847.595	0.07061604
847.773	0.07042779
847.951	0.07021846
848.129	0.06999905
848.306	0.06981243
848.484	0.06963598
848.662	0.06950187
848.839	0.06942135
849.017	0.06925151
849.194	0.06916065
849.372	0.06902583
849.549	0.06879384
849.727	0.06862161
849.905	0.06837359
850.082	0.06809404
850.26	0.06786095
850.437	0.06766487
850.614	0.06747962
850.792	0.06734491
850.969	0.06721438
851.147	0.06712106
851.324	0.06702559
851.501	0.06692679
851.679	0.06673227
851.856	0.06653037
852.033	0.06642891
852.211	0.06612175
852.388	0.06583378
852.565	0.06562879
852.742	0.06548086
852.92	0.06525619
853.097	0.06507649
853.274	0.0648379
853.451	0.06473961
853.628	0.06461938
853.805	0.06442904
853.982	0.06420356
854.159	0.06407704
854.336	0.06393811
854.514	0.0637697
854.691	0.06358995
854.868	0.06342869
855.045	0.0631717
855.221	0.06297616
855.398	0.06273173
855.575	0.06253188
855.752	0.06236018
855.929	0.06223482
856.106	0.06211189
856.283	0.0620072
856.46	0.06181495
856.637	0.06176531
856.813	0.06164079
856.99	0.0614929
857.167	0.06121863
857.344	0.06101815
857.52	0.06087086
857.697	0.06067582
857.874	0.06043455
858.05	0.06024287
858.227	0.06000216
858.404	0.05992929
858.58	0.05971996
858.757	0.05958547
858.933	0.05947575
859.11	0.0593147
859.287	0.05915365
859.463	0.05904229
859.64	0.0588306
859.816	0.05869273
859.993	0.05839751
860.169	0.05826243
860.345	0.05803474
860.522	0.05783961
860.698	0.05763775
860.875	0.05748014
861.051	0.05731183
861.227	0.05726049
861.404	0.05710027
861.58	0.05698971
861.756	0.05685064
861.932	0.05682997
862.109	0.05667921
862.285	0.05645353
862.461	0.05619203
862.637	0.05607128
862.813	0.05587458
862.99	0.05570035
863.166	0.05546737
863.342	0.05530772
863.518	0.05520166
863.694	0.05517519
863.87	0.05503649
864.046	0.05497004
864.222	0.0548712
864.398	0.05475659
864.574	0.05460495
864.75	0.0544999
864.926	0.0542654
865.102	0.05401884
865.278	0.05374179
865.454	0.05360595
865.63	0.05337593
865.805	0.05327452
865.981	0.05308735
866.157	0.0530298
866.333	0.05293702
866.509	0.05296349
866.684	0.05280212
866.86	0.05273817
867.036	0.05265827
867.212	0.05261416
867.387	0.05244659
867.563	0.05227953
867.739	0.05208983
867.914	0.05192499
868.09	0.05156739
868.265	0.05126912
868.441	0.0510196
868.617	0.05094475
868.792	0.05081516
868.968	0.05064141
869.143	0.05049804
869.319	0.0505058
869.494	0.05037446
869.67	0.0502182
869.845	0.05006817
870.02	0.04987553
870.196	0.04963214
870.371	0.04942087
870.546	0.04928945
870.722	0.04907599
870.897	0.04891656
871.072	0.04866404
871.248	0.04844401
871.423	0.04831847
871.598	0.04818595
871.773	0.04806761
871.949	0.04798128
872.124	0.04785619
872.299	0.04776588
872.474	0.0477394
872.649	0.04761413
872.824	0.04752851
872.999	0.04730997
873.174	0.04709738
873.349	0.04687661
873.524	0.04666446
873.699	0.04645639
873.874	0.04637993
874.049	0.04622693
874.224	0.04615764
874.399	0.04610508
874.574	0.04606838
874.749	0.04600706
874.924	0.04588687
875.099	0.0457701
875.274	0.04559317
875.449	0.04531111
875.623	0.04518453
875.798	0.04494466
875.973	0.04468695
876.148	0.04437531
876.322	0.04404429
876.497	0.0438186
876.672	0.04374387
876.846	0.04356943
877.021	0.04353809
877.196	0.0434585
877.37	0.04351163
877.545	0.04342656
877.72	0.04328896
877.894	0.04310181
878.069	0.04285129
878.243	0.04252448
878.418	0.04231682
878.592	0.04208368
878.767	0.04194174
878.941	0.04187546
879.116	0.04177287
879.29	0.04177441
879.464	0.0417683
879.639	0.04154707
879.813	0.04163599
879.987	0.04156977
880.162	0.04146191
880.336	0.04123069
880.51	0.04101845
880.685	0.0408679
880.859	0.04078026
881.033	0.04041529
881.207	0.04022944
881.381	0.04011566
881.556	0.0400623
881.73	0.03990123
881.904	0.0398525
882.078	0.03984058
882.252	0.0398102
882.426	0.03976864
882.6	0.03968821
882.774	0.03958971
882.948	0.03966612
883.122	0.03949224
883.296	0.03930447
883.47	0.03911862
883.644	0.03895243
883.818	0.03865315
883.992	0.03852794
884.166	0.03819339
884.34	0.03801692
884.514	0.03785981
884.687	0.03777539
884.861	0.0376337
885.035	0.03754498
885.209	0.03739641
885.382	0.03736612
885.556	0.03733381
885.73	0.03725711
885.904	0.03709927
886.077	0.03698867
886.251	0.03688304
886.425	0.03669595
886.598	0.03642923
886.772	0.03620478
886.945	0.03602963
887.119	0.0358864
887.292	0.0357695
887.466	0.03558337
887.64	0.03554224
887.813	0.03559502
887.986	0.03553443
888.16	0.03554386
888.333	0.03545448
888.507	0.03533486
888.68	0.03528942
888.854	0.0351142
889.027	0.03487274
889.2	0.0347781
889.374	0.03461391
889.547	0.03451555
889.72	0.0343533
889.893	0.03423093
890.067	0.03412583
890.24	0.03402267
890.413	0.03389411
890.586	0.03370121
890.759	0.03357391
890.933	0.03349034
891.106	0.03341476
891.279	0.0333507
891.452	0.03326784
891.625	0.03320908
891.798	0.03312563
891.971	0.03290873
892.144	0.03275821
892.317	0.03265138
892.49	0.03260158
892.663	0.03250575
892.836	0.03227453
893.009	0.0322257
893.182	0.03219658
893.355	0.032044
893.527	0.03195293
893.7	0.03172808
893.873	0.03168252
894.046	0.0315936
894.219	0.03143724
894.391	0.03137831
894.564	0.03132433
894.737	0.03104501
894.91	0.03099818
895.082	0.03076384
895.255	0.03067133
895.428	0.03047327
895.6	0.0302282
895.773	0.03010326
895.945	0.03007926
896.118	0.02992201
896.291	0.02994166
896.463	0.02987553
896.636	0.02986036
896.808	0.02987625
896.981	0.02982871
897.153	0.02969036
897.326	0.02966366
897.498	0.02947257
897.67	0.02928075
897.843	0.02910873
898.015	0.02898186
898.187	0.02883874
898.36	0.02873771
898.532	0.02852132
898.704	0.02839452
898.877	0.02840665
899.049	0.02836695
899.221	0.02826881
899.393	0.02814713
899.566	0.02810169
899.738	0.02808502
899.91	0.02797649
900.082	0.02780266
900.254	0.02765169
900.426	0.02766378
900.598	0.02759461
900.77	0.0273455
900.942	0.02720839
901.114	0.02712707
901.286	0.02708261
901.458	0.02698765
901.63	0.02674839
901.802	0.02674351
901.974	0.02680652
902.146	0.02674684
902.318	0.02674263
902.49	0.02668998
902.662	0.02656354
902.834	0.02638049
903.005	0.02618894
903.177	0.02610603
903.349	0.02599076
903.521	0.02576876
903.693	0.02552426
903.864	0.02552641
904.036	0.02545444
904.208	0.02536249
904.379	0.02519785
904.551	0.02514394
904.723	0.02505112
904.894	0.02483671
905.066	0.02476469
905.237	0.02473683
905.409	0.02467843
905.58	0.02479666
905.752	0.02467204
905.923	0.02459085
906.095	0.02468234
906.266	0.02459682
906.438	0.02446303
906.609	0.02425327
906.78	0.02390653
906.952	0.02374282
907.123	0.02369543
907.295	0.02351184
907.466	0.02333624
907.637	0.02325834
907.808	0.02322503
907.98	0.02318528
908.151	0.02318001
908.322	0.02312359
908.493	0.02312082
908.665	0.02302679
908.836	0.02299042
909.007	0.02295631
909.178	0.022813
909.349	0.02262545
909.52	0.02258548
909.691	0.0224053
909.862	0.02234945
910.033	0.02222104
910.204	0.02218174
910.375	0.02222971
910.546	0.02227025
910.717	0.02205741
910.888	0.02210344
911.059	0.02207808
911.23	0.02210018
911.401	0.02193534
911.572	0.02186803
911.742	0.02180818
911.913	0.02171149
912.084	0.0215884
912.255	0.02138806
912.426	0.02122159
912.596	0.02106382
912.767	0.0209393
912.938	0.02078487
913.108	0.02072713
913.279	0.02058341
913.45	0.02051712
913.62	0.02056105
913.791	0.02059817
913.962	0.02062758
914.132	0.02057282
914.303	0.02052808
914.473	0.02047033
914.644	0.02044063
914.814	0.02017495
914.985	0.02000091
915.155	0.01976916
915.326	0.01964741
915.496	0.01946639
915.666	0.01932835
915.837	0.01919783
916.007	0.01914793
916.177	0.01907607
916.348	0.01896262
916.518	0.01892384
916.688	0.01896382
916.858	0.01887767
917.029	0.01881014
917.199	0.01880352
917.369	0.01882908
917.539	0.01880337
917.709	0.01877372
917.88	0.0186057
918.05	0.01859858
918.22	0.01848036
918.39	0.01831097
918.56	0.01812727
918.73	0.01806708
918.9	0.01781215
919.07	0.01773954
919.24	0.01765024
919.41	0.01766002
919.58	0.01765197
919.75	0.01764989
919.92	0.01757363
920.09	0.01765399
920.26	0.01765464
920.429	0.01758349
920.599	0.01744595
920.769	0.01737071
920.939	0.01723048
921.109	0.01714132
921.278	0.01694871
921.448	0.0169579
921.618	0.01677643
921.787	0.01677304
921.957	0.01661557
922.127	0.01655422
922.296	0.01643854
922.466	0.01652939
922.636	0.01651901
922.805	0.01660411
922.975	0.01650041
923.144	0.01648213
923.314	0.01647509
923.483	0.01644695
923.653	0.01626727
923.822	0.01599701
923.992	0.01599814
924.161	0.01585768
924.331	0.01583764
924.5	0.01583277
924.669	0.01576471
924.839	0.01555002
925.008	0.01555682
925.177	0.01529287
925.347	0.01525105
925.516	0.01526384
925.685	0.01511896
925.854	0.01507108
926.023	0.01528979
926.193	0.01521591
926.362	0.01545194
926.531	0.01539905
926.7	0.01511637
926.869	0.01498855
927.038	0.01483739
927.207	0.0146185
927.376	0.0145114
927.545	0.01429787
927.715	0.01440049
927.884	0.01448368
928.052	0.014604
928.221	0.01469182
928.39	0.01455796
928.559	0.01460363
928.728	0.014596
928.897	0.01443316
929.066	0.01443179
929.235	0.01439854
929.404	0.01447465
929.572	0.01473364
929.741	0.01468688
929.91	0.01456002
930.079	0.01463431
930.247	0.01450852
930.416	0.01425562
930.585	0.01397442
930.753	0.01371164
930.922	0.01375976
931.091	0.01388175
931.259	0.01379814
931.428	0.01376671
931.596	0.0138512
931.765	0.01400065
931.934	0.01402318
932.102	0.01397237
932.27	0.01385941
932.439	0.01367534
932.607	0.01382632
932.776	0.0138142
932.944	0.01349927
933.113	0.01328345
933.281	0.01303591
933.449	0.01285494
933.618	0.01280046
933.786	0.01255691
933.954	0.01246142
934.123	0.01245086
934.291	0.01264139
934.459	0.01267203
934.627	0.01267132
934.795	0.01288079
934.964	0.0131551
935.132	0.01311501
935.3	0.01322163
935.468	0.01331813
935.636	0.01307088
935.804	0.01292159
935.972	0.01278093
936.14	0.01229946
936.308	0.01234647
936.476	0.01235758
936.644	0.01226083
936.812	0.01254764
936.98	0.01286351
937.148	0.01282591
937.316	0.01287978
937.484	0.01296451
937.652	0.01292819
937.82	0.01286399
937.987	0.01306074
938.155	0.01279823
938.323	0.01271618
938.491	0.01306179
938.658	0.01260313
938.826	0.01219754
938.994	0.012541
939.162	0.0124843
939.329	0.01221484
939.497	0.01297903
939.665	0.01299883
939.832	0.0136598
940	0.01425959
940.167	0.01381041
940.335	0.01339781
940.502	0.01396002
940.67	0.0132183
940.837	0.01356756
941.005	0.01316859
941.172	0.01302778
941.34	0.01356795
941.507	0.01439738
941.674	0.01483708
941.842	0.01429447
942.009	0.01414911
942.177	0.01424989
942.344	0.01499953
942.511	0.01398568
942.678	0.01377662
942.846	0.01347763
943.013	0.01435585
943.18	0.01401059
943.347	0.0144457
943.514	0.01376318
943.682	0.01421732
943.849	0.01392744
944.016	0.0139381
944.183	0.01409628
944.35	0.01477955
944.517	0.01491584
944.684	0.01588727
944.851	0.01549164
945.018	0.01594092
945.185	0.0161581
945.352	0.01583168
945.519	0.01477967
945.686	0.01425581
945.853	0.01429263
946.02	0.0149752
946.187	0.01444356
946.353	0.01408372
946.52	0.01427702
946.687	0.01453689
946.854	0.01375985
947.021	0.01316356
947.187	0.01259208
947.354	0.01256455
947.521	0.01311595
947.687	0.01268221
947.854	0.01254336
948.021	0.01323624
948.187	0.01314143
948.354	0.01340433
948.52	0.01287217
948.687	0.01233578
948.854	0.0119136
949.02	0.01205004
949.187	0.0121575
949.353	0.0121404
949.52	0.0116552
949.686	0.01180182
949.852	0.01191319
950.019	0.01196438
950.185	0.01154014
950.352	0.01106986
950.518	0.01099585
950.684	0.01126984
950.851	0.01148304
951.017	0.01074383
951.183	0.01045599
951.349	0.01076033
951.516	0.01062763
951.682	0.00992873
951.848	0.00949
952.014	0.00911818
952.18	0.00909029
952.346	0.00950301
952.512	0.00872467
952.679	0.00889157
952.845	0.00874741
953.011	0.00880222
953.177	0.00888518
953.343	0.00922907
953.509	0.00914221
953.675	0.00956606
953.841	0.00917493
954.007	0.00930326
954.172	0.00939648
954.338	0.0089841
954.504	0.00872954
954.67	0.00873378
954.836	0.00856864
955.002	0.00881764
955.167	0.008677
955.333	0.0085884
955.499	0.00935344
955.665	0.00930857
955.83	0.00897915
955.996	0.0090489
956.162	0.0089936
956.327	0.00924866
956.493	0.00941837
956.659	0.00887889
956.824	0.00907011
956.99	0.00895101
957.155	0.00864545
957.321	0.00819625
957.486	0.00834974
957.652	0.00785904
957.817	0.00768961
957.983	0.00734012
958.148	0.00751104
958.314	0.00769979
958.479	0.0079257
958.644	0.0076107
958.81	0.00734985
958.975	0.00728585
959.14	0.00731132
959.306	0.00699559
959.471	0.0067104
959.636	0.00670272
959.801	0.00672414
959.967	0.007012
960.132	0.00715675
960.297	0.00703143
960.462	0.00719306
960.627	0.00736832
960.792	0.00740038
960.957	0.00750519
961.123	0.00727722
961.288	0.00756369
961.453	0.00787651
961.618	0.00798922
961.783	0.00770187
961.948	0.00758036
962.113	0.00738231
962.277	0.0072841
962.442	0.00694558
962.607	0.00697279
962.772	0.00667279
962.937	0.00656026
963.102	0.00626182
963.267	0.00629952
963.431	0.00653977
963.596	0.00632795
963.761	0.00604006
963.926	0.00603294
964.09	0.00621212
964.255	0.00651267
964.42	0.00643112
964.584	0.00617408
964.749	0.00619962
964.914	0.00584534
965.078	0.00566509
965.243	0.00586448
965.407	0.00540221
965.572	0.00521143
965.736	0.0052154
965.901	0.00519026
966.065	0.0055208
966.23	0.00589975
966.394	0.00547222
966.559	0.00567122
966.723	0.00561444
966.887	0.00560252
967.052	0.00563204
967.216	0.00565571
967.38	0.00601432
967.545	0.00654944
967.709	0.00663501
967.873	0.00666981
968.037	0.00690379
968.202	0.00677951
968.366	0.00646876
968.53	0.00590376
968.694	0.00555082
968.858	0.00539159
969.022	0.00569002
969.187	0.00545198
969.351	0.00559123
969.515	0.00540189
969.679	0.00529863
969.843	0.00524527
970.007	0.00517827
970.171	0.00503448
970.335	0.0049064
970.499	0.00480365
970.662	0.00510443
970.826	0.00508182
970.99	0.00517331
971.154	0.0051582
971.318	0.00497293
971.482	0.00484467
971.645	0.00496683
971.809	0.00494983
971.973	0.00542316
972.137	0.00521011
972.3	0.00492416
972.464	0.00494744
972.628	0.00526871
972.791	0.0054469
972.955	0.00548971
973.119	0.00527328
973.282	0.00515448
973.446	0.00599263
973.609	0.00589324
973.773	0.00587905
973.936	0.00542188
974.1	0.00542805
974.263	0.00558648
974.427	0.00556809
974.59	0.0049714
974.754	0.0049912
974.917	0.0048762
975.08	0.00496816
975.244	0.00421195
975.407	0.0038528
975.57	0.00401822
975.734	0.0040849
975.897	0.00390613
976.06	0.0043344
976.223	0.00421384
976.387	0.00476281
976.55	0.00462349
976.713	0.00443599
976.876	0.0042775
977.039	0.00438623
977.202	0.00454272
977.365	0.00475147
977.528	0.00508262
977.692	0.00479621
977.855	0.00508694
978.018	0.00521895
978.181	0.00545443
978.344	0.00524994
978.506	0.00520111
978.669	0.00525523
978.832	0.0053936
978.995	0.00518222
979.158	0.00517827
979.321	0.00463163
979.484	0.00458155
979.646	0.00439337
979.809	0.00428214
979.972	0.0047109
980.135	0.00501355
980.297	0.00508976
980.46	0.00503605
980.623	0.00473229
980.786	0.00507847
980.948	0.004709
981.111	0.00438879
981.273	0.00416333
981.436	0.00396938
981.599	0.00422827
981.761	0.00419101
981.924	0.00401449
982.086	0.00400171
982.249	0.00427622
982.411	0.00421961
982.573	0.00470653
982.736	0.00498688
982.898	0.00481926
983.061	0.00441504
983.223	0.00416595
983.385	0.00333203
983.548	0.00318933
983.71	0.00282544
983.872	0.00245521
984.034	0.00241916
984.197	0.00232152
984.359	0.00276381
984.521	0.00320864
984.683	0.00304531
984.845	0.00347866
985.008	0.00322499
985.17	0.00350664
985.332	0.00440684
985.494	0.0040881
985.656	0.00422191
985.818	0.00472773
985.98	0.00394443
986.142	0.00405259
986.304	0.0035896
986.466	0.00325418
986.628	0.00368859
986.79	0.00348231
986.952	0.00314542
987.113	0.00316277
987.275	0.00316594
987.437	0.00389167
987.599	0.0039484
987.761	0.00344146
987.922	0.0034668
988.084	0.0036572
988.246	0.00334607
988.408	0.00357027
988.569	0.00308564
988.731	0.00290839
988.893	0.00327025
989.054	0.00336499
989.216	0.00352148
989.377	0.00413621
989.539	0.00420738
989.701	0.0040946
989.862	0.00387006
990.024	0.00360379
990.185	0.00385051
990.347	0.00366562
990.508	0.00374825
990.669	0.00396428
990.831	0.00396839
990.992	0.00433481
991.154	0.00427062
991.315	0.00424731
991.476	0.004541
991.638	0.00446821
991.799	0.00411331
991.96	0.00388519
992.121	0.00362689
992.283	0.00402406
992.444	0.00389378
992.605	0.00312625
992.766	0.00296276
992.927	0.00321106
993.088	0.00355716
993.249	0.00429276
993.41	0.00380573
993.572	0.00371721
993.733	0.00440343
993.894	0.00432696
994.055	0.00427572
994.216	0.00394328
994.376	0.00313116
994.537	0.00381164
994.698	0.0044545
994.859	0.00390688
995.02	0.00421085
995.181	0.00405332
995.342	0.0045848
995.503	0.00427247
995.663	0.00386593
995.824	0.00293768
995.985	0.00364092
996.146	0.00280612
996.306	0.00340054
996.467	0.00323547
996.628	0.00427596
996.788	0.00447921
996.949	0.00503341
997.11	0.00504976
997.27	0.00610569
997.431	0.00582091
997.591	0.00600442
997.752	0.00542658
997.912	0.00508326
998.073	0.00503522
998.233	0.00459156
998.394	0.00494015
998.554	0.00505259
998.714	0.0042347
998.875	0.00395613
999.035	0.00486532
999.196	0.00534654
999.356	0.00548585
999.516	0.00533327
999.676	0.00419645
999.837	0.00394271
999.997	0.00431355
1000.157	0.00349281
1000.317	0.00301934
1000.477	0.00272403
1000.638	0.00239724
1000.798	0.00370501
1000.958	0.00418671
1001.118	0.00373963
1001.278	0.00307047
1001.438	0.00291819
1001.598	0.00300054
1001.758	0.00314755
1001.918	0.00307119
1002.078	0.0042257
1002.238	0.00397641
1002.398	0.00409659
1002.558	0.00493506
1002.718	0.00578636
1002.878	0.00579251
1003.037	0.00540552
1003.197	0.00455704
1003.357	0.00487968
1003.517	0.00530036
1003.677	0.00476843
1003.836	0.00400016
1003.996	0.00392751
1004.156	0.00412176
1004.315	0.0048502
1004.475	0.00548689
1004.635	0.0070303
1004.794	0.00718398
1004.954	0.00753663
1005.114	0.00725487
1005.273	0.00728324
1005.433	0.00730867
1005.592	0.00652091
1005.752	0.00480793
1005.911	0.00462995
1006.071	0.00444095
1006.23	0.00405228
1006.389	0.00413779
1006.549	0.00367004
1006.708	0.00421039
1006.868	0.0045822
1007.027	0.00461268
1007.186	0.00434497
1007.345	0.00614311
1007.505	0.00604888
1007.664	0.0050607
1007.823	0.00461991
1007.982	0.00508474
1008.142	0.00501233
1008.301	0.00363344
1008.46	0.00201514
1008.619	0.00126004
1008.778	0.00214395
1008.937	0.00322111
1009.096	0.00309171
1009.255	0.00315219
1009.414	0.00292626
1009.573	0.00288287
1009.732	0.0039168
1009.891	0.00396888
1010.05	0.00313385
1010.209	0.00354019
1010.368	0.00434125
1010.527	0.00682296
1010.686	0.00757332
1010.845	0.00650995
1011.003	0.00615261
1011.162	0.00650467
1011.321	0.0055899
1011.48	0.00368863
1011.638	0.0034444
1011.797	0.00331993
1011.956	0.00241337
1012.115	0.00250844
1012.273	0.00173251
1012.432	0.00286496
1012.59	0.00370811
1012.749	0.0028343
1012.908	0.00366139
1013.066	0.00443989
1013.225	0.00394153
1013.383	0.00427898
1013.542	0.00330109
1013.7	0.00395204
1013.859	0.0051733
1014.017	0.00422718
1014.175	0.00547142
1014.334	0.0042709
1014.492	0.00457883
1014.65	0.00533337
1014.809	0.00439721
1014.967	0.00468829
1015.125	0.00475085
1015.284	0.00562585
1015.442	0.00961114
1015.6	0.01007247
1015.758	0.0108592
1015.916	0.011792
1016.075	0.01017641
1016.233	0.00915819
1016.391	0.00971473
1016.549	0.00611577
1016.707	0.00553298
1016.865	0.00469734
1017.023	0.00450802
1017.181	0.0075119
1017.339	0.00697548
1017.497	0.00383671
1017.655	0.00655269
1017.813	0.00810363
1017.971	0.0093667
1018.129	0.00771872
1018.286	0.00598602
1018.444	0.00586255
1018.602	0.00793223
1018.76	0.00664774
1018.918	0.00613437
1019.075	0.00448916
1019.233	0.00658534
1019.391	0.00558108
1019.549	0.0079107
1019.706	0.00873423
1019.864	0.00910353
1020.022	0.00726959
1020.179	0.00704569
1020.337	0.00715962
1020.494	0.00812438
1020.652	0.00893603
1020.809	0.00892512
1020.967	0.00981126
1021.124	0.00853525
1021.282	0.0097554
1021.439	0.00937688
1021.597	0.01173825
1021.754	0.0078977
1021.911	0.0056762
1022.069	0.00613318
1022.226	0.00933723
1022.384	0.00763599
1022.541	0.00815229
1022.698	0.00713164
1022.855	0.00897472
1023.013	0.00952363
1023.17	0.01019657
1023.327	0.00880843
1023.484	0.00767196
1023.641	0.00430677
1023.798	0.00270592
1023.956	0.00433245
1024.113	0.00209639
1024.27	0.00132122
1024.427	0.00366346
1024.584	0.00663105
1024.741	0.01106398
1024.898	0.00943204
1025.055	0.00928988
1025.212	0.01344787
1025.369	0.01257577
1025.525	0.01142709
1025.682	0.01150531
1025.839	0.01057532
1025.996	0.01518534
1026.153	0.01422224
1026.31	0.01394931
1026.466	0.01539503
1026.623	0.01993833
1026.78	0.02014123
1026.937	0.01692818
1027.093	0.01572525
1027.25	0.0126198
1027.407	0.01662678
1027.563	0.01986091
1027.72	0.01468756
1027.876	0.01673185
1028.033	0.02303867
1028.19	0.01799108
1028.346	0.02158079
1028.503	0.01535087
1028.659	0.00972543
1028.816	0.01115096
1028.972	0.00598366
1029.128	-0.0007859
1029.285	0.0016681
1029.441	-0.00054568
1029.598	0.00251168
1029.754	0.00113929
1029.91	0.00052939
1030.067	0.00035333
1030.223	0.00244636
1030.379	-0.00072245
1030.535	0.0012331
1030.691	0.00398364
1030.848	0.01094985
1031.004	0.01288028
1031.16	0.01740951
1031.316	0.02004675
1031.472	0.03282721
1031.628	0.03152288
1031.784	0.02824575
1031.94	0.0215442
1032.096	0.02532979
1032.252	0.02154588
1032.408	0.02698711
1032.564	0.0167896
1032.72	0.0142522
1032.876	0.01348616
1033.032	0.01490359
1033.188	0.00937956
1033.344	0.00602304
1033.5	-0.00642275
1033.655	-0.00787726
1033.811	-0.0064614
1033.967	-0.01270896
