Data from 0_1_mm_pl_70pc_Absorbance__0__17-54-46-060.txt Node

Date: Wed Mar 01 17:54:46 CET 2023
User: Ange
Spectrometer: FLMT08341
Trigger mode: 0
Integration Time (sec): 1.000000E-2
Scans to average: 400
Electric dark correction enabled: true
Nonlinearity correction enabled: false
Boxcar width: 3
XAxis mode: Wavelengths
Number of Pixels in Spectrum: 3648
>>>>>Begin Spectral Data<<<<<
345.271	-0.02621989
345.487	-0.02236548
345.704	-0.02768871
345.921	-0.02644556
346.137	-0.03774672
346.354	-0.02799558
346.571	0.00426431
346.787	-0.03631923
347.004	-0.00995558
347.22	-0.02833597
347.437	0.02227966
347.653	-0.36738688
347.87	0.3674753
348.086	0.20719324
348.303	-0.28944448
348.519	0.05808617
348.736	0.05655926
348.952	0.05951668
349.169	0.05906784
349.385	0.06119271
349.601	0.06164718
349.818	0.05964306
350.034	0.05946003
350.251	0.05995999
350.467	0.06142277
350.683	0.05908675
350.9	0.05718827
351.116	0.05652254
351.332	0.05596655
351.549	0.05597962
351.765	0.05732922
351.981	0.0565011
352.197	0.0596909
352.414	0.0623689
352.63	0.06273492
352.846	0.06449536
353.062	0.06357694
353.278	0.06155156
353.495	0.0609543
353.711	0.05916187
353.927	0.05839609
354.143	0.0581163
354.359	0.05753721
354.575	0.05836558
354.792	0.05730919
355.008	0.05621444
355.224	0.05598315
355.44	0.05464468
355.656	0.05412281
355.872	0.05320122
356.088	0.05499309
356.304	0.05628668
356.52	0.05629073
356.736	0.05774644
356.952	0.05821201
357.168	0.05809193
357.384	0.06003842
357.6	0.05851389
357.816	0.05870521
358.032	0.06160087
358.248	0.06130596
358.464	0.06106452
358.679	0.06408325
358.895	0.0627764
359.111	0.06251856
359.327	0.06155014
359.543	0.05943906
359.759	0.05835165
359.974	0.05940801
360.19	0.05694615
360.406	0.05625049
360.622	0.05601067
360.838	0.05571817
361.053	0.05643295
361.269	0.05785113
361.485	0.05813732
361.701	0.05810814
361.916	0.05878374
362.132	0.05927001
362.348	0.05984915
362.563	0.05977724
362.779	0.05939632
362.995	0.05864344
363.21	0.05964829
363.426	0.05947542
363.641	0.05926302
363.857	0.05984949
364.073	0.05952337
364.288	0.05869615
364.504	0.05956489
364.719	0.05890133
364.935	0.05847999
365.15	0.05888575
365.366	0.05764232
365.581	0.05750848
365.797	0.05827956
366.012	0.05652967
366.228	0.05749847
366.443	0.05756795
366.658	0.05750466
366.874	0.05736638
367.089	0.05813295
367.305	0.05681208
367.52	0.05774909
367.735	0.05723198
367.951	0.05771775
368.166	0.05849556
368.381	0.05984296
368.597	0.06011533
368.812	0.06094329
369.027	0.06110504
369.243	0.06057251
369.458	0.06073299
369.673	0.06015143
369.888	0.06050378
370.104	0.06004003
370.319	0.06032766
370.534	0.06019731
370.749	0.06089788
370.964	0.06179828
371.179	0.06156881
371.395	0.06105192
371.61	0.06116775
371.825	0.06135894
372.04	0.06139166
372.255	0.06072675
372.47	0.05921868
372.685	0.05856582
372.9	0.05823884
373.115	0.05809399
373.33	0.05787051
373.545	0.05813435
373.76	0.05863028
373.975	0.0584838
374.19	0.05892422
374.405	0.05923059
374.62	0.05946818
374.835	0.05922676
375.05	0.0595673
375.265	0.05971055
375.48	0.05964985
375.695	0.05985881
375.91	0.05957178
376.125	0.05944599
376.339	0.05959033
376.554	0.05927014
376.769	0.05858453
376.984	0.05949214
377.199	0.05999014
377.414	0.06053383
377.628	0.06060545
377.843	0.06070648
378.058	0.06101956
378.273	0.06175134
378.487	0.06261222
378.702	0.06249535
378.917	0.06219163
379.131	0.06237249
379.346	0.06175897
379.561	0.06151215
379.775	0.06130302
379.99	0.06004675
380.205	0.06017853
380.419	0.06000211
380.634	0.05953606
380.848	0.0600662
381.063	0.06056957
381.278	0.06105051
381.492	0.06122152
381.707	0.06166711
381.921	0.06168176
382.136	0.06212187
382.35	0.06271057
382.565	0.06245245
382.779	0.06204154
382.994	0.06182858
383.208	0.06103443
383.422	0.06181624
383.637	0.06214881
383.851	0.06220623
384.066	0.06279444
384.28	0.06305946
384.494	0.0642268
384.709	0.06452183
384.923	0.06392454
385.137	0.06343048
385.352	0.06327365
385.566	0.06310388
385.78	0.06322417
385.995	0.06279029
386.209	0.06302512
386.423	0.06361161
386.637	0.06386235
386.852	0.06439629
387.066	0.06492968
387.28	0.06465427
387.494	0.06494654
387.708	0.06528815
387.923	0.06506252
388.137	0.06519293
388.351	0.06484867
388.565	0.06464352
388.779	0.06493197
388.993	0.06535443
389.207	0.06519032
389.421	0.06564671
389.635	0.06551098
389.85	0.06561672
390.064	0.06519349
390.278	0.06558915
390.492	0.06595465
390.706	0.06634953
390.92	0.06620646
391.134	0.06663658
391.348	0.06722962
391.561	0.06731477
391.775	0.06678398
391.989	0.06644867
392.203	0.06635398
392.417	0.06639059
392.631	0.06669951
392.845	0.06670727
393.059	0.06730996
393.273	0.06757993
393.486	0.06709575
393.7	0.06674143
393.914	0.06663559
394.128	0.06620877
394.342	0.06552766
394.555	0.06540692
394.769	0.06539578
394.983	0.06562781
395.197	0.06616029
395.41	0.06660301
395.624	0.06708403
395.838	0.06745514
396.051	0.06752938
396.265	0.06756805
396.479	0.06782382
396.692	0.0680307
396.906	0.06817741
397.12	0.06808549
397.333	0.06809748
397.547	0.06788362
397.76	0.06815075
397.974	0.06837777
398.187	0.06820157
398.401	0.06799949
398.614	0.06845072
398.828	0.06878998
399.041	0.06927023
399.255	0.06910784
399.468	0.06867301
399.682	0.06835769
399.895	0.06864699
400.109	0.06838283
400.322	0.06822689
400.536	0.06746386
400.749	0.06744687
400.962	0.06770673
401.176	0.06784913
401.389	0.06777639
401.602	0.06719829
401.816	0.06699214
402.029	0.06723272
402.242	0.06753766
402.456	0.06733884
402.669	0.06726142
402.882	0.06707296
403.095	0.06736509
403.309	0.06758833
403.522	0.06792622
403.735	0.06779841
403.948	0.06777411
404.161	0.06810125
404.375	0.06831343
404.588	0.06844353
404.801	0.06826795
405.014	0.06804978
405.227	0.0682956
405.44	0.06833904
405.653	0.06843181
405.866	0.06777484
406.079	0.06791127
406.293	0.06794215
406.506	0.06815425
406.719	0.06829413
406.932	0.06862415
407.145	0.06870268
407.358	0.06937043
407.571	0.0692078
407.784	0.06920511
407.996	0.06893731
408.209	0.06831956
408.422	0.0680782
408.635	0.06764034
408.848	0.06727696
409.061	0.06684351
409.274	0.06687674
409.487	0.06685737
409.7	0.06720602
409.912	0.0673316
410.125	0.06745095
410.338	0.06747356
410.551	0.0678444
410.764	0.06781141
410.976	0.06795941
411.189	0.06757371
411.402	0.0672342
411.615	0.06692489
411.827	0.06677884
412.04	0.06666888
412.253	0.06665709
412.465	0.06631544
412.678	0.06635754
412.891	0.06647273
413.103	0.06644404
413.316	0.06642852
413.529	0.06631126
413.741	0.06611003
413.954	0.06631993
414.166	0.0663085
414.379	0.06614364
414.591	0.06622152
414.804	0.06608039
415.016	0.06613417
415.229	0.0656304
415.441	0.06559712
415.654	0.06574233
415.866	0.06569259
416.079	0.06540535
416.291	0.065328
416.504	0.06521257
416.716	0.06541213
416.928	0.06494072
417.141	0.06438606
417.353	0.06422619
417.566	0.06421071
417.778	0.06415404
417.99	0.0637225
418.203	0.06354996
418.415	0.06368071
418.627	0.06371585
418.839	0.06345577
419.052	0.06357494
419.264	0.06327746
419.476	0.06318453
419.688	0.06321146
419.901	0.06277798
420.113	0.0626706
420.325	0.06258069
420.537	0.06206754
420.749	0.06206501
420.961	0.06206332
421.174	0.06188814
421.386	0.06206084
421.598	0.0619676
421.81	0.06194459
422.022	0.0618391
422.234	0.06164621
422.446	0.0614451
422.658	0.06116349
422.87	0.06082012
423.082	0.06064672
423.294	0.06044978
423.506	0.0603212
423.718	0.06009968
423.93	0.05983413
424.142	0.05952751
424.354	0.05923377
424.566	0.05891625
424.778	0.05885558
424.99	0.05870239
425.202	0.05862762
425.414	0.05847652
425.625	0.05863487
425.837	0.05833612
426.049	0.05818039
426.261	0.0577849
426.473	0.05730419
426.684	0.05704595
426.896	0.05694073
427.108	0.05638548
427.32	0.05634494
427.531	0.05604294
427.743	0.05583991
427.955	0.05611744
428.167	0.05582297
428.378	0.05540196
428.59	0.05561499
428.802	0.05551274
429.013	0.05533728
429.225	0.05516406
429.436	0.05464483
429.648	0.05432734
429.86	0.05423584
430.071	0.05359095
430.283	0.05325615
430.494	0.05328036
430.706	0.05301951
430.917	0.05281666
431.129	0.05281877
431.34	0.05255392
431.552	0.05258053
431.763	0.05235158
431.975	0.05195439
432.186	0.05152903
432.398	0.05137201
432.609	0.05109261
432.821	0.05092928
433.032	0.05066601
433.243	0.05056898
433.455	0.05036062
433.666	0.05015152
433.877	0.05012488
434.089	0.04987455
434.3	0.04968316
434.511	0.0493977
434.723	0.04919927
434.934	0.04896984
435.145	0.04920361
435.356	0.04883399
435.568	0.04871506
435.779	0.04846856
435.99	0.04827057
436.201	0.04780611
436.412	0.04752733
436.624	0.04722332
436.835	0.04691567
437.046	0.04673291
437.257	0.04646472
437.468	0.04620262
437.679	0.04607673
437.89	0.04576152
438.101	0.04535848
438.312	0.04526926
438.523	0.04490802
438.734	0.0447736
438.945	0.04472391
439.156	0.04458516
439.367	0.04448542
439.578	0.0443878
439.789	0.04406071
440	0.04387585
440.211	0.04337728
440.422	0.04284982
440.633	0.04249468
440.844	0.04206939
441.055	0.04171019
441.266	0.0414978
441.477	0.0412467
441.687	0.04117457
441.898	0.04096639
442.109	0.04061112
442.32	0.04059168
442.531	0.04039974
442.741	0.04011461
442.952	0.03985446
443.163	0.03960262
443.374	0.03937665
443.584	0.03925563
443.795	0.03890064
444.006	0.03868544
444.216	0.03824667
444.427	0.03788552
444.638	0.03761899
444.848	0.03744492
445.059	0.03713484
445.27	0.03673614
445.48	0.03617852
445.691	0.03597534
445.901	0.03578256
446.112	0.03555549
446.323	0.03533813
446.533	0.03509523
446.744	0.03505916
446.954	0.03481822
447.165	0.03472472
447.375	0.03455053
447.586	0.03438178
447.796	0.03405484
448.006	0.03391157
448.217	0.03352277
448.427	0.03351413
448.638	0.03314234
448.848	0.03278266
449.058	0.0324437
449.269	0.03220285
449.479	0.03183939
449.689	0.0317322
449.9	0.03143536
450.11	0.03125319
450.32	0.03114417
450.531	0.03093781
450.741	0.03077361
450.951	0.03066902
451.161	0.03039317
451.372	0.03024822
451.582	0.03011987
451.792	0.02983819
452.002	0.02962434
452.212	0.02945381
452.422	0.02921458
452.633	0.02894323
452.843	0.02860928
453.053	0.02828488
453.263	0.02812008
453.473	0.02791336
453.683	0.02750182
453.893	0.02713231
454.103	0.02708199
454.313	0.02687786
454.523	0.0267276
454.733	0.02636634
454.943	0.0261461
455.153	0.02617295
455.363	0.02595785
455.573	0.02557471
455.783	0.02548127
455.993	0.02525931
456.203	0.02527386
456.413	0.02510276
456.623	0.02476441
456.833	0.0247315
457.042	0.02452601
457.252	0.02430299
457.462	0.02410276
457.672	0.02385331
457.882	0.02368222
458.091	0.02358842
458.301	0.02336177
458.511	0.02329268
458.721	0.02316205
458.931	0.02293602
459.14	0.02282052
459.35	0.02261212
459.56	0.02241523
459.769	0.0222496
459.979	0.02214789
460.189	0.02183403
460.398	0.02155852
460.608	0.02145195
460.817	0.02132931
461.027	0.02113152
461.237	0.02108624
461.446	0.02089495
461.656	0.02082697
461.865	0.02080274
462.075	0.02052781
462.284	0.02030324
462.494	0.02015123
462.703	0.0198752
462.913	0.01968875
463.122	0.01956682
463.332	0.01940221
463.541	0.01936042
463.751	0.01923417
463.96	0.01916082
464.169	0.01901485
464.379	0.01890639
464.588	0.0187127
464.797	0.01871715
465.007	0.01853025
465.216	0.01848717
465.425	0.01832851
465.635	0.01818895
465.844	0.01805057
466.053	0.0179547
466.263	0.01778904
466.472	0.01767283
466.681	0.01755469
466.89	0.0174645
467.099	0.01736538
467.309	0.01723806
467.518	0.01719404
467.727	0.01709991
467.936	0.01692914
468.145	0.01681857
468.354	0.01674759
468.563	0.01662705
468.772	0.01649118
468.982	0.01635872
469.191	0.01621503
469.4	0.01608743
469.609	0.01589491
469.818	0.01568608
470.027	0.01553701
470.236	0.01543338
470.445	0.01539783
470.654	0.01521348
470.863	0.01518614
471.072	0.01514611
471.28	0.0150713
471.489	0.01508869
471.698	0.01494905
471.907	0.01469799
472.116	0.01468645
472.325	0.01460937
472.534	0.01454489
472.743	0.01452607
472.951	0.01441724
473.16	0.01437356
473.369	0.01434441
473.578	0.01422497
473.786	0.01410454
473.995	0.01398057
474.204	0.01386855
474.413	0.01380193
474.621	0.01378913
474.83	0.01381166
475.039	0.0137306
475.247	0.013704
475.456	0.01365284
475.665	0.01359874
475.873	0.01352157
476.082	0.01354702
476.291	0.01346741
476.499	0.013542
476.708	0.01345995
476.916	0.0134607
477.125	0.01339069
477.333	0.01336481
477.542	0.01316992
477.75	0.01299581
477.959	0.01283687
478.167	0.01282659
478.376	0.01264926
478.584	0.01255755
478.793	0.0125318
479.001	0.01261283
479.209	0.01267444
479.418	0.0126328
479.626	0.01261234
479.834	0.01262354
480.043	0.01267315
480.251	0.01259488
480.459	0.01246462
480.668	0.01241245
480.876	0.01245183
481.084	0.01231817
481.293	0.01232874
481.501	0.01230883
481.709	0.01230248
481.917	0.01229067
482.125	0.01217182
482.334	0.01207485
482.542	0.01211472
482.75	0.01203553
482.958	0.01199859
483.166	0.01193485
483.374	0.01200248
483.583	0.01212271
483.791	0.01211575
483.999	0.01210272
484.207	0.01215505
484.415	0.01215185
484.623	0.01223824
484.831	0.01209462
485.039	0.01209636
485.247	0.01208725
485.455	0.01205119
485.663	0.01204242
485.871	0.01205005
486.079	0.01195415
486.287	0.01206671
486.495	0.01201117
486.702	0.01207596
486.91	0.01205224
487.118	0.0120995
487.326	0.01207681
487.534	0.0121566
487.742	0.01204549
487.95	0.01204205
488.157	0.01204111
488.365	0.01217739
488.573	0.01213286
488.781	0.01216716
488.988	0.01216141
489.196	0.01219693
489.404	0.01225605
489.612	0.012219
489.819	0.01219213
490.027	0.01221332
490.235	0.01216547
490.442	0.0121624
490.65	0.01225255
490.857	0.01219934
491.065	0.01220523
491.273	0.01218995
491.48	0.01224681
491.688	0.0123219
491.895	0.01233455
492.103	0.0122777
492.31	0.01232264
492.518	0.01243628
492.725	0.01249974
492.933	0.0124903
493.14	0.01249445
493.348	0.01247198
493.555	0.01251137
493.763	0.01252928
493.97	0.01250043
494.177	0.01248237
494.385	0.01248747
494.592	0.01261085
494.8	0.01269082
495.007	0.01273784
495.214	0.01282305
495.422	0.01283582
495.629	0.01286101
495.836	0.01290381
496.043	0.01283571
496.251	0.01289055
496.458	0.01291988
496.665	0.01294543
496.872	0.01300828
497.08	0.01308844
497.287	0.01318049
497.494	0.01328491
497.701	0.01335716
497.908	0.01339315
498.115	0.013475
498.322	0.01357842
498.53	0.01356664
498.737	0.01359737
498.944	0.01367045
499.151	0.01368251
499.358	0.01381476
499.565	0.01379938
499.772	0.01385612
499.979	0.01397492
500.186	0.01397474
500.393	0.01396583
500.6	0.01404004
500.807	0.01401007
501.014	0.01413246
501.221	0.01412611
501.427	0.01415445
501.634	0.01423696
501.841	0.01432553
502.048	0.01433377
502.255	0.01441554
502.462	0.01439401
502.669	0.01444385
502.875	0.01446472
503.082	0.01456056
503.289	0.01459806
503.496	0.01465769
503.702	0.01474321
503.909	0.01483572
504.116	0.01490589
504.323	0.01494941
504.529	0.01503613
504.736	0.01516229
504.943	0.01528815
505.149	0.01537123
505.356	0.01548204
505.563	0.01555552
505.769	0.01573245
505.976	0.01578637
506.182	0.01579269
506.389	0.01584094
506.595	0.01584618
506.802	0.01588082
507.008	0.01599497
507.215	0.01604368
507.421	0.01609243
507.628	0.01620056
507.834	0.01626069
508.041	0.01639263
508.247	0.01646779
508.454	0.01649833
508.66	0.01658761
508.866	0.01668739
509.073	0.01673306
509.279	0.01691548
509.486	0.01698748
509.692	0.01711915
509.898	0.01727854
510.105	0.01732451
510.311	0.0173768
510.517	0.01751065
510.723	0.01755079
510.93	0.01768985
511.136	0.01774528
511.342	0.01778046
511.548	0.01791079
511.754	0.01805651
511.961	0.01817389
512.167	0.01829271
512.373	0.01835966
512.579	0.01847378
512.785	0.01857966
512.991	0.01862814
513.197	0.0186831
513.404	0.01870972
513.61	0.01878248
513.816	0.01889477
514.022	0.01894493
514.228	0.01903864
514.434	0.01921868
514.64	0.01934537
514.846	0.019476
515.052	0.01955297
515.258	0.01961464
515.464	0.01976362
515.669	0.01990248
515.875	0.01998108
516.081	0.02008843
516.287	0.02018235
516.493	0.02029463
516.699	0.0203951
516.905	0.02048236
517.111	0.02056756
517.316	0.0206849
517.522	0.02084582
517.728	0.02099525
517.934	0.02111559
518.139	0.02125554
518.345	0.02137638
518.551	0.02152791
518.757	0.02158916
518.962	0.02165864
519.168	0.02174957
519.374	0.02185255
519.579	0.02199123
519.785	0.02213292
519.991	0.02222944
520.196	0.02237933
520.402	0.02250463
520.607	0.02266816
520.813	0.02284493
521.018	0.02296166
521.224	0.02311181
521.429	0.02324553
521.635	0.02339788
521.84	0.02347074
522.046	0.02353869
522.251	0.02359102
522.457	0.02366168
522.662	0.0237522
522.868	0.02388019
523.073	0.02401776
523.279	0.02418513
523.484	0.02433366
523.689	0.0245569
523.895	0.0247287
524.1	0.02485894
524.305	0.02493018
524.511	0.0250288
524.716	0.02519364
524.921	0.02534715
525.126	0.02537604
525.332	0.02554717
525.537	0.02568971
525.742	0.02588684
525.947	0.02606946
526.153	0.02617898
526.358	0.02637164
526.563	0.02651922
526.768	0.02664225
526.973	0.0268264
527.178	0.02699301
527.383	0.02712563
527.588	0.02729632
527.794	0.02736785
527.999	0.02760007
528.204	0.02778463
528.409	0.02788187
528.614	0.02803496
528.819	0.02818826
529.024	0.02832091
529.229	0.02846086
529.434	0.02858682
529.639	0.02867487
529.843	0.02885385
530.048	0.02897489
530.253	0.0291501
530.458	0.02932454
530.663	0.02959574
530.868	0.02977262
531.073	0.0299743
531.278	0.03015588
531.482	0.03033847
531.687	0.03049064
531.892	0.03065918
532.097	0.03073452
532.302	0.03088948
532.506	0.03107132
532.711	0.03122056
532.916	0.03142909
533.12	0.03161104
533.325	0.03179992
533.53	0.03202299
533.734	0.03222695
533.939	0.0324198
534.144	0.03259479
534.348	0.03276878
534.553	0.03293055
534.757	0.03309555
534.962	0.0332554
535.167	0.03342993
535.371	0.03359845
535.576	0.03379742
535.78	0.03394455
535.985	0.03411999
536.189	0.03430341
536.394	0.03447988
536.598	0.03467624
536.803	0.03490273
537.007	0.03510688
537.211	0.03529712
537.416	0.03548099
537.62	0.0357081
537.825	0.03590901
538.029	0.03608348
538.233	0.03623484
538.438	0.03641137
538.642	0.03663628
538.846	0.03691144
539.05	0.03708381
539.255	0.03730475
539.459	0.03751428
539.663	0.03771281
539.867	0.03790316
540.072	0.03805859
540.276	0.03818239
540.48	0.03840187
540.684	0.03854775
540.888	0.03871747
541.092	0.03893789
541.297	0.03917801
541.501	0.03943224
541.705	0.03966569
541.909	0.03987054
542.113	0.04010355
542.317	0.04037014
542.521	0.04054155
542.725	0.04073738
542.929	0.0409522
543.133	0.04118202
543.337	0.04138206
543.541	0.04161478
543.745	0.04183763
543.949	0.04206752
544.153	0.04231767
544.357	0.04255592
544.56	0.04282356
544.764	0.04306267
544.968	0.04328315
545.172	0.04349284
545.376	0.04371762
545.58	0.04391698
545.783	0.04407867
545.987	0.04420973
546.191	0.04443608
546.395	0.04471615
546.598	0.04494561
546.802	0.04519197
547.006	0.04540213
547.21	0.0456891
547.413	0.04596969
547.617	0.04619556
547.821	0.04633664
548.024	0.04656272
548.228	0.04676572
548.431	0.04701653
548.635	0.04720981
548.839	0.04747041
549.042	0.0477688
549.246	0.04806031
549.449	0.04834556
549.653	0.04864259
549.856	0.0488881
550.06	0.04920773
550.263	0.04944103
550.467	0.04965663
550.67	0.04992146
550.874	0.05009537
551.077	0.05029019
551.28	0.05058516
551.484	0.05080698
551.687	0.05102812
551.891	0.05128136
552.094	0.05151209
552.297	0.05180276
552.501	0.05215707
552.704	0.05235539
552.907	0.05259909
553.11	0.0529221
553.314	0.05321113
553.517	0.05351898
553.72	0.05379713
553.923	0.05402106
554.127	0.05429718
554.33	0.05458748
554.533	0.05484348
554.736	0.05508014
554.939	0.05531011
555.142	0.05557638
555.345	0.05584124
555.549	0.05612642
555.752	0.05634754
555.955	0.05658494
556.158	0.0568325
556.361	0.05709685
556.564	0.05732811
556.767	0.05762001
556.97	0.05792008
557.173	0.05822826
557.376	0.05849893
557.579	0.05878124
557.782	0.05905087
557.984	0.05938269
558.187	0.0596668
558.39	0.05994967
558.593	0.06021473
558.796	0.06050836
558.999	0.06078137
559.202	0.06107616
559.404	0.06131375
559.607	0.06156826
559.81	0.0618504
560.013	0.06213586
560.216	0.06238847
560.418	0.06270564
560.621	0.06299942
560.824	0.0633417
561.026	0.06365094
561.229	0.06396327
561.432	0.06428045
561.634	0.064662
561.837	0.06492993
562.04	0.06525608
562.242	0.06553525
562.445	0.06581247
562.647	0.06610539
562.85	0.06636334
563.053	0.06660508
563.255	0.06695091
563.458	0.06725083
563.66	0.06757255
563.863	0.06789201
564.065	0.06818565
564.268	0.06851906
564.47	0.06883012
564.672	0.0690991
564.875	0.06936473
565.077	0.06962463
565.28	0.06996166
565.482	0.070276
565.684	0.07055294
565.887	0.07081999
566.089	0.07116789
566.291	0.07150236
566.494	0.07183148
566.696	0.07208968
566.898	0.07241895
567.1	0.072739
567.303	0.07311672
567.505	0.0734033
567.707	0.07369407
567.909	0.07401989
568.111	0.07437613
568.314	0.07464211
568.516	0.07494819
568.718	0.07522153
568.92	0.07553775
569.122	0.07585026
569.324	0.07619777
569.526	0.0764747
569.728	0.07681361
569.93	0.07715709
570.132	0.07750547
570.334	0.07785523
570.536	0.0781858
570.738	0.0784689
570.94	0.07877786
571.142	0.07909568
571.344	0.07946407
571.546	0.07973922
571.748	0.08004908
571.95	0.08033826
572.152	0.08065326
572.354	0.08098718
572.555	0.08130775
572.757	0.08158213
572.959	0.08191858
573.161	0.08225122
573.363	0.08258882
573.564	0.08296608
573.766	0.0832749
573.968	0.08363188
574.17	0.08393839
574.371	0.0842886
574.573	0.08462078
574.775	0.08498503
574.976	0.08527264
575.178	0.08563287
575.38	0.08595007
575.581	0.08627168
575.783	0.08663672
575.985	0.08692874
576.186	0.08724052
576.388	0.08758918
576.589	0.0879209
576.791	0.08828924
576.992	0.08864473
577.194	0.08897173
577.395	0.08931943
577.597	0.08966798
577.798	0.08997926
578	0.09030829
578.201	0.09063776
578.402	0.09100074
578.604	0.09130141
578.805	0.09162769
579.007	0.09191244
579.208	0.09225389
579.409	0.09258336
579.611	0.09286348
579.812	0.09319265
580.013	0.09355705
580.215	0.09387852
580.416	0.09424176
580.617	0.09454408
580.818	0.0948862
581.019	0.09520578
581.221	0.09548443
581.422	0.09580805
581.623	0.09618226
581.824	0.09649145
582.025	0.09686058
582.226	0.09720398
582.428	0.09762364
582.629	0.09799389
582.83	0.09835758
583.031	0.09864883
583.232	0.09902206
583.433	0.0993582
583.634	0.09970021
583.835	0.09998038
584.036	0.10027634
584.237	0.10055219
584.438	0.10091469
584.639	0.10126808
584.84	0.10163806
585.041	0.10197907
585.242	0.10229864
585.442	0.10269718
585.643	0.10308737
585.844	0.10340405
586.045	0.10371226
586.246	0.10399354
586.447	0.10429175
586.647	0.10461647
586.848	0.10491451
587.049	0.10521749
587.25	0.10556112
587.45	0.1059116
587.651	0.10626285
587.852	0.10663623
588.053	0.10704466
588.253	0.10740613
588.454	0.10773895
588.655	0.10805084
588.855	0.10836076
589.056	0.10869029
589.256	0.10901507
589.457	0.1093011
589.658	0.10961865
589.858	0.10990336
590.059	0.11026831
590.259	0.11061586
590.46	0.11094597
590.66	0.11124702
590.861	0.11158199
591.061	0.11193256
591.262	0.11233223
591.462	0.11265139
591.662	0.11296828
591.863	0.11327521
592.063	0.11359626
592.264	0.11394368
592.464	0.114226
592.664	0.11455105
592.865	0.11492459
593.065	0.11520983
593.265	0.11556309
593.465	0.11589817
593.666	0.11619045
593.866	0.11650907
594.066	0.11686423
594.266	0.11714881
594.467	0.11751257
594.667	0.11781205
594.867	0.11815997
595.067	0.11844377
595.267	0.11875135
595.467	0.11901212
595.668	0.11930624
595.868	0.1196389
596.068	0.11995583
596.268	0.12020951
596.468	0.12057877
596.668	0.1209319
596.868	0.12124096
597.068	0.12152346
597.268	0.12184266
597.468	0.12213702
597.668	0.12249635
597.868	0.12278893
598.068	0.12313239
598.268	0.12344209
598.467	0.12386184
598.667	0.12413459
598.867	0.12440882
599.067	0.12473247
599.267	0.1249913
599.467	0.12524913
599.667	0.12555321
599.866	0.12579552
600.066	0.12611338
600.266	0.12644068
600.466	0.12670269
600.665	0.12697633
600.865	0.12729382
601.065	0.12757355
601.264	0.12782131
601.464	0.12812097
601.664	0.12844995
601.863	0.12872539
602.063	0.1290498
602.263	0.12927433
602.462	0.12958549
602.662	0.1298686
602.861	0.13012535
603.061	0.13037789
603.26	0.13067621
603.46	0.13093508
603.659	0.1312513
603.859	0.13149351
604.058	0.13180658
604.258	0.13214105
604.457	0.13248369
604.657	0.13269927
604.856	0.13297105
605.056	0.13329615
605.255	0.13357746
605.454	0.13385174
605.654	0.13403706
605.853	0.13429748
606.052	0.13463772
606.252	0.13495192
606.451	0.13520273
606.65	0.13549197
606.849	0.13568448
607.049	0.13598801
607.248	0.1362084
607.447	0.1364501
607.646	0.1367048
607.845	0.13696176
608.045	0.13716945
608.244	0.13750481
608.443	0.13774795
608.642	0.13802754
608.841	0.13825878
609.04	0.13847449
609.239	0.1387292
609.438	0.13894586
609.637	0.13923459
609.836	0.13951565
610.035	0.13976118
610.234	0.14006122
610.433	0.1403414
610.632	0.14056662
610.831	0.14090549
611.03	0.14109321
611.229	0.14139286
611.428	0.14165322
611.627	0.14190193
611.826	0.14220073
612.025	0.14254755
612.224	0.14277404
612.422	0.14308468
612.621	0.14331852
612.82	0.14355201
613.019	0.14383037
613.218	0.14409211
613.416	0.14423325
613.615	0.14452911
613.814	0.14481119
614.012	0.14504368
614.211	0.14523358
614.41	0.14545464
614.608	0.145618
614.807	0.14585942
615.006	0.14608131
615.204	0.14622193
615.403	0.14645128
615.602	0.14676475
615.8	0.14699074
615.999	0.14722758
616.197	0.14749475
616.396	0.14773858
616.594	0.14793838
616.793	0.14821157
616.991	0.14839304
617.19	0.14857738
617.388	0.14885916
617.586	0.14906549
617.785	0.14926653
617.983	0.14955007
618.182	0.14969524
618.38	0.14993139
618.578	0.1501871
618.777	0.15043448
618.975	0.15070709
619.173	0.15098008
619.372	0.15117409
619.57	0.15134586
619.768	0.15157965
619.966	0.15181863
620.165	0.15193651
620.363	0.15212586
620.561	0.1522069
620.759	0.15238422
620.957	0.15265007
621.155	0.15284611
621.354	0.1529923
621.552	0.15325592
621.75	0.15342854
621.948	0.15373395
622.146	0.15397613
622.344	0.15416344
622.542	0.15439612
622.74	0.15460825
622.938	0.15474881
623.136	0.15498814
623.334	0.15521322
623.532	0.15533764
623.73	0.15552832
623.928	0.15570844
624.126	0.15593354
624.324	0.15619272
624.522	0.15626645
624.719	0.15637774
624.917	0.15663008
625.115	0.15677744
625.313	0.15696467
625.511	0.15716103
625.708	0.15725107
625.906	0.15747042
626.104	0.15767188
626.302	0.15790961
626.499	0.15816511
626.697	0.15834532
626.895	0.15848926
627.093	0.15870531
627.29	0.15897478
627.488	0.15916694
627.686	0.15931829
627.883	0.15942323
628.081	0.15951351
628.278	0.15978229
628.476	0.15991603
628.673	0.16002898
628.871	0.16017013
629.068	0.1602899
629.266	0.16052852
629.463	0.16071877
629.661	0.16082687
629.858	0.16099879
630.056	0.16117478
630.253	0.16132765
630.451	0.16151412
630.648	0.16166435
630.845	0.16182798
631.043	0.16194907
631.24	0.16219182
631.438	0.1623969
631.635	0.16258324
631.832	0.16267388
632.029	0.16284604
632.227	0.16301842
632.424	0.16321822
632.621	0.16332887
632.818	0.16346187
633.016	0.16363798
633.213	0.16380963
633.41	0.16398672
633.607	0.16414395
633.804	0.16424736
634.001	0.16432492
634.199	0.16446815
634.396	0.16459017
634.593	0.1647336
634.79	0.16487547
634.987	0.16506149
635.184	0.16527611
635.381	0.16552992
635.578	0.16569384
635.775	0.16582614
635.972	0.16599594
636.169	0.16612876
636.366	0.16620651
636.563	0.1662894
636.76	0.16638239
636.957	0.16648402
637.153	0.16655939
637.35	0.16673042
637.547	0.16685784
637.744	0.16703133
637.941	0.16721054
638.138	0.16736287
638.334	0.16748181
638.531	0.16771407
638.728	0.16782923
638.925	0.16802897
639.121	0.16815178
639.318	0.16825126
639.515	0.16834488
639.711	0.16854201
639.908	0.16860071
640.105	0.16872385
640.301	0.16876495
640.498	0.16892217
640.695	0.16910113
640.891	0.16926854
641.088	0.16937149
641.284	0.16957177
641.481	0.16969176
641.677	0.16983291
641.874	0.169879
642.07	0.1699864
642.267	0.17013219
642.463	0.17024143
642.66	0.17036455
642.856	0.17047491
643.053	0.17051127
643.249	0.17070736
643.445	0.17081023
643.642	0.17088493
643.838	0.17098654
644.034	0.17109963
644.231	0.17125613
644.427	0.17144666
644.623	0.17151017
644.82	0.17164398
645.016	0.17174974
645.212	0.17184656
645.408	0.17196827
645.604	0.17214464
645.801	0.1722287
645.997	0.17237118
646.193	0.17243459
646.389	0.1726185
646.585	0.17278952
646.781	0.17290496
646.977	0.17294081
647.173	0.17309188
647.37	0.17314014
647.566	0.17332627
647.762	0.17337635
647.958	0.17348777
648.154	0.17359151
648.35	0.17370902
648.546	0.17380985
648.742	0.17402624
648.937	0.17404539
649.133	0.17419855
649.329	0.17432168
649.525	0.17442394
649.721	0.17452313
649.917	0.17467562
650.113	0.17470589
650.309	0.17489283
650.504	0.17498716
650.7	0.17503798
650.896	0.17518037
651.092	0.17531873
651.287	0.1754263
651.483	0.17561099
651.679	0.17564525
651.875	0.17572139
652.07	0.17583266
652.266	0.17592476
652.462	0.17600781
652.657	0.17607096
652.853	0.17614003
653.048	0.17629549
653.244	0.17638647
653.44	0.17648541
653.635	0.17646178
653.831	0.17663166
654.026	0.17677695
654.222	0.17688381
654.417	0.17703323
654.613	0.17721301
654.808	0.17734461
655.004	0.17760149
655.199	0.17759147
655.394	0.1776562
655.59	0.1778123
655.785	0.1778447
655.98	0.17793212
656.176	0.1779919
656.371	0.17808453
656.566	0.17826536
656.762	0.17835018
656.957	0.17841485
657.152	0.17851734
657.348	0.17862402
657.543	0.17875087
657.738	0.17882605
657.933	0.17889216
658.128	0.17895469
658.324	0.17901711
658.519	0.17912075
658.714	0.17916628
658.909	0.17924361
659.104	0.1793181
659.299	0.1794156
659.494	0.17951378
659.689	0.17962165
659.884	0.17971036
660.079	0.17981215
660.274	0.17993355
660.469	0.1800649
660.664	0.18020956
660.859	0.18037867
661.054	0.18054638
661.249	0.18068442
661.444	0.18081268
661.639	0.18090108
661.834	0.18098133
662.029	0.18106006
662.224	0.18115572
662.418	0.18122422
662.613	0.18129387
662.808	0.18136518
663.003	0.18149657
663.198	0.18161035
663.392	0.18171075
663.587	0.1818889
663.782	0.18193802
663.977	0.18206504
664.171	0.1822349
664.366	0.18235597
664.561	0.18246434
664.755	0.18259829
664.95	0.18262201
665.144	0.18279944
665.339	0.18290186
665.534	0.18299163
665.728	0.18311116
665.923	0.18328205
666.117	0.18335391
666.312	0.1834693
666.506	0.18365751
666.701	0.18375436
666.895	0.18385998
667.09	0.18398559
667.284	0.18410134
667.479	0.18422727
667.673	0.18437164
667.867	0.1844217
668.062	0.18455778
668.256	0.18469089
668.45	0.18480372
668.645	0.18488171
668.839	0.18502413
669.033	0.18511168
669.228	0.18521053
669.422	0.18539208
669.616	0.18552246
669.81	0.18566085
670.004	0.18573464
670.199	0.1858517
670.393	0.18600219
670.587	0.18612411
670.781	0.18617646
670.975	0.1863193
671.169	0.18635377
671.363	0.18649762
671.558	0.18660822
671.752	0.18671316
671.946	0.18685998
672.14	0.18704007
672.334	0.18710113
672.528	0.1873461
672.722	0.18744211
672.916	0.18759392
673.11	0.1877194
673.304	0.18790152
673.497	0.18797875
673.691	0.18819524
673.885	0.18827058
674.079	0.18849033
674.273	0.18859548
674.467	0.18878514
674.661	0.18886612
674.854	0.18898377
675.048	0.18909049
675.242	0.18922036
675.436	0.18930184
675.629	0.18942783
675.823	0.18945262
676.017	0.18961903
676.211	0.18974034
676.404	0.18982385
676.598	0.1899503
676.792	0.19007848
676.985	0.19024347
677.179	0.19044027
677.372	0.19050016
677.566	0.19072651
677.76	0.19090049
677.953	0.19105478
678.147	0.19123041
678.34	0.19135661
678.534	0.19148463
678.727	0.1916897
678.921	0.19184687
679.114	0.19194728
679.307	0.192107
679.501	0.19226599
679.694	0.1924319
679.888	0.19259895
680.081	0.19272883
680.274	0.19279776
680.468	0.1929788
680.661	0.1931612
680.854	0.19339698
681.048	0.19355187
681.241	0.19369353
681.434	0.19379243
681.627	0.19397274
681.821	0.194107
682.014	0.19427638
682.207	0.19429078
682.4	0.19441743
682.593	0.19459984
682.786	0.19476334
682.98	0.19490904
683.173	0.19514305
683.366	0.19521471
683.559	0.19536804
683.752	0.19560586
683.945	0.19579872
684.138	0.19599917
684.331	0.19612763
684.524	0.19628364
684.717	0.19642204
684.91	0.19665443
685.103	0.19671878
685.296	0.19682685
685.489	0.19696957
685.682	0.19714254
685.874	0.19730518
686.067	0.19748549
686.26	0.19762002
686.453	0.19780816
686.646	0.19797221
686.839	0.19814689
687.031	0.19832511
687.224	0.19839572
687.417	0.1986035
687.61	0.19872909
687.802	0.19893669
687.995	0.19914503
688.188	0.19934818
688.38	0.19952521
688.573	0.19977548
688.766	0.19992722
688.958	0.20008895
689.151	0.20021805
689.343	0.20038707
689.536	0.20052803
689.729	0.20067608
689.921	0.20080379
690.114	0.20091728
690.306	0.20114267
690.499	0.20132301
690.691	0.20145999
690.884	0.20161955
691.076	0.20188063
691.268	0.20206678
691.461	0.2022531
691.653	0.20242105
691.846	0.2026292
692.038	0.20283854
692.23	0.20299816
692.423	0.20312476
692.615	0.20326656
692.807	0.20343473
692.999	0.20361224
693.192	0.20374325
693.384	0.20388482
693.576	0.20403419
693.768	0.204231
693.961	0.20439257
694.153	0.20463806
694.345	0.20481083
694.537	0.20499449
694.729	0.20517815
694.921	0.20535405
695.113	0.20554471
695.305	0.2057051
695.498	0.20581766
695.69	0.20605991
695.882	0.20620825
696.074	0.2064215
696.266	0.20665645
696.458	0.20676948
696.65	0.20703202
696.842	0.20725456
697.033	0.20740014
697.225	0.2075884
697.417	0.20781827
697.609	0.20799108
697.801	0.20822085
697.993	0.20844847
698.185	0.20863826
698.376	0.20884943
698.568	0.20908055
698.76	0.20920046
698.952	0.20937362
699.144	0.20952422
699.335	0.20965326
699.527	0.20986343
699.719	0.20997998
699.91	0.2102271
700.102	0.21039936
700.294	0.21064682
700.485	0.21090408
700.677	0.21111969
700.869	0.21138508
701.06	0.21166686
701.252	0.21176416
701.443	0.21199252
701.635	0.21216372
701.826	0.2123691
702.018	0.21258252
702.209	0.2127358
702.401	0.21288728
702.592	0.21315911
702.784	0.21334429
702.975	0.21357534
703.166	0.21374502
703.358	0.21390199
703.549	0.2140974
703.741	0.21425655
703.932	0.21444804
704.123	0.21464665
704.315	0.21483571
704.506	0.21512179
704.697	0.21534616
704.888	0.21559503
705.08	0.21587537
705.271	0.21608866
705.462	0.21627016
705.653	0.21642592
705.844	0.21653488
706.035	0.21670302
706.227	0.21680585
706.418	0.21697384
706.609	0.21719678
706.8	0.21750292
706.991	0.21769427
707.182	0.21791338
707.373	0.21812126
707.564	0.21837791
707.755	0.21858663
707.946	0.21873138
708.137	0.21884687
708.328	0.2190503
708.519	0.21926316
708.71	0.2195501
708.901	0.21977129
709.092	0.22002089
709.283	0.22026459
709.473	0.22049509
709.664	0.22078869
709.855	0.22098281
710.046	0.22118577
710.237	0.22134773
710.427	0.22154333
710.618	0.22172987
710.809	0.22194324
711	0.22213394
711.19	0.22229588
711.381	0.22247825
711.572	0.22272048
711.762	0.22292378
711.953	0.22314612
712.144	0.22332745
712.334	0.22355461
712.525	0.22389931
712.715	0.22408549
712.906	0.22422889
713.097	0.22437033
713.287	0.22455155
713.478	0.22474364
713.668	0.22495738
713.859	0.22505917
714.049	0.22530799
714.239	0.22557629
714.43	0.22582348
714.62	0.22603514
714.811	0.22629249
715.001	0.22648601
715.191	0.22674711
715.382	0.22688612
715.572	0.22710285
715.762	0.22728153
715.953	0.22752292
716.143	0.22770517
716.333	0.22785177
716.523	0.22796426
716.714	0.22827792
716.904	0.22849986
717.094	0.22875494
717.284	0.22890069
717.474	0.22914482
717.664	0.22943043
717.855	0.22968671
718.045	0.22979629
718.235	0.22999018
718.425	0.23021581
718.615	0.23048787
718.805	0.23067909
718.995	0.23092068
719.185	0.2311931
719.375	0.23146163
719.565	0.23171413
719.755	0.23197101
719.945	0.23216262
720.135	0.23243043
720.325	0.23267325
720.515	0.23287716
720.704	0.23313757
720.894	0.23333988
721.084	0.23352601
721.274	0.23378858
721.464	0.23400006
721.654	0.23419232
721.843	0.23442984
722.033	0.23466982
722.223	0.23490609
722.413	0.23518704
722.602	0.23538176
722.792	0.23560138
722.982	0.23573527
723.171	0.23596311
723.361	0.23613353
723.55	0.23635524
723.74	0.23651635
723.93	0.23677735
724.119	0.23701076
724.309	0.23730455
724.498	0.23749018
724.688	0.23772656
724.877	0.23789199
725.067	0.23805647
725.256	0.2381909
725.446	0.23834649
725.635	0.2385149
725.825	0.23866318
726.014	0.23880099
726.203	0.23900377
726.393	0.23919197
726.582	0.2393364
726.771	0.2395095
726.961	0.23966562
727.15	0.23985889
727.339	0.24002273
727.529	0.24024032
727.718	0.24039753
727.907	0.2406286
728.096	0.24078329
728.286	0.24091878
728.475	0.24109355
728.664	0.2412818
728.853	0.24135168
729.042	0.2414938
729.231	0.24158879
729.42	0.24175338
729.609	0.24195205
729.799	0.24204445
729.988	0.24219562
730.177	0.24236972
730.366	0.24254386
730.555	0.24275662
730.744	0.24297195
730.933	0.24311482
731.122	0.24332691
731.31	0.24349231
731.499	0.24367763
731.688	0.24385985
731.877	0.2439544
732.066	0.24404717
732.255	0.24415171
732.444	0.24430648
732.632	0.24440188
732.821	0.24453538
733.01	0.24468866
733.199	0.24480478
733.388	0.24494222
733.576	0.24512974
733.765	0.24530596
733.954	0.24546511
734.142	0.24559833
734.331	0.24575096
734.52	0.24593517
734.708	0.24611767
734.897	0.24626962
735.086	0.24636674
735.274	0.2465276
735.463	0.24666177
735.651	0.24679198
735.84	0.24692869
736.028	0.24710482
736.217	0.24723477
736.405	0.24734494
736.594	0.2474783
736.782	0.24766995
736.971	0.24776742
737.159	0.24790434
737.347	0.24797505
737.536	0.24808024
737.724	0.24829315
737.912	0.24843674
738.101	0.24849646
738.289	0.24864104
738.477	0.2488106
738.666	0.2489229
738.854	0.24904825
739.042	0.24914788
739.23	0.2492722
739.418	0.24940951
739.607	0.24952501
739.795	0.24967115
739.983	0.2498535
740.171	0.25001367
740.359	0.25013653
740.547	0.25025708
740.735	0.25038695
740.923	0.25061525
741.112	0.2507505
741.3	0.25088252
741.488	0.25101844
741.676	0.25117239
741.864	0.25127066
742.052	0.25141707
742.239	0.2514373
742.427	0.25153601
742.615	0.25160235
742.803	0.25166935
742.991	0.25170787
743.179	0.25187194
743.367	0.25197972
743.555	0.25213429
743.742	0.25223895
743.93	0.25241917
744.118	0.25256617
744.306	0.25273134
744.494	0.25277429
744.681	0.25286389
744.869	0.25289793
745.057	0.25294393
745.244	0.25296087
745.432	0.25309553
745.62	0.25320104
745.807	0.25340425
745.995	0.2535422
746.182	0.25365848
746.37	0.25383462
746.558	0.25397515
746.745	0.2540188
746.933	0.25410615
747.12	0.25418241
747.308	0.25429816
747.495	0.25440459
747.683	0.25447573
747.87	0.25456885
748.057	0.25472705
748.245	0.25485769
748.432	0.25489442
748.62	0.25489261
748.807	0.25499077
748.994	0.25511538
749.182	0.25518114
749.369	0.25523969
749.556	0.25531948
749.743	0.2554283
749.931	0.2555729
750.118	0.25566495
750.305	0.25570116
750.492	0.25574674
750.68	0.25583858
750.867	0.25587487
751.054	0.25596476
751.241	0.25603014
751.428	0.25609732
751.615	0.25622106
751.802	0.25630149
751.989	0.25631844
752.176	0.25644347
752.363	0.25652258
752.55	0.25653458
752.737	0.25666907
752.924	0.25667526
753.111	0.2567992
753.298	0.25696434
753.485	0.25698871
753.672	0.25701409
753.859	0.25715821
754.046	0.25720236
754.233	0.25727974
754.42	0.25731754
754.606	0.25728841
754.793	0.25727722
754.98	0.25739792
755.167	0.2574191
755.353	0.25748969
755.54	0.25754698
755.727	0.25756989
755.914	0.25760712
756.1	0.25770726
756.287	0.25764671
756.474	0.25766546
756.66	0.25766309
756.847	0.25773054
757.033	0.25778815
757.22	0.25781091
757.407	0.25788449
757.593	0.25793187
757.78	0.25799846
757.966	0.25802817
758.153	0.25800705
758.339	0.25804166
758.526	0.25809193
758.712	0.25806783
758.898	0.2581706
759.085	0.25816496
759.271	0.25821739
759.458	0.2582387
759.644	0.25828833
759.83	0.25834262
760.017	0.25841983
760.203	0.25838146
760.389	0.25841596
760.576	0.25835837
760.762	0.25840737
760.948	0.25834471
761.134	0.25834652
761.32	0.25831575
761.507	0.25834331
761.693	0.25840805
761.879	0.25845458
762.065	0.25844717
762.251	0.2585263
762.437	0.25857363
762.623	0.25854737
762.809	0.25854704
762.995	0.25847013
763.181	0.25844344
763.367	0.25843965
763.553	0.2584198
763.739	0.25835615
763.925	0.2583807
764.111	0.25840095
764.297	0.25842295
764.483	0.25840089
764.669	0.25830728
764.855	0.25824648
765.041	0.25821546
765.227	0.25813384
765.412	0.25810503
765.598	0.25803691
765.784	0.25801686
765.97	0.25809201
766.156	0.25811082
766.341	0.25813326
766.527	0.25810988
766.713	0.25805325
766.898	0.25802746
767.084	0.25800808
767.27	0.2579483
767.455	0.25784066
767.641	0.25774352
767.827	0.25775574
768.012	0.25774
768.198	0.25771201
768.383	0.25763417
768.569	0.25765943
768.754	0.25770823
768.94	0.25772502
769.125	0.25763224
769.311	0.25755101
769.496	0.25753304
769.682	0.25757618
769.867	0.25752305
770.052	0.2574843
770.238	0.25741544
770.423	0.257503
770.608	0.25751846
770.794	0.25744627
770.979	0.25727242
771.164	0.25717713
771.35	0.25700945
771.535	0.25689529
771.72	0.25671932
771.905	0.25666236
772.09	0.25662113
772.276	0.25669396
772.461	0.25661519
772.646	0.25661332
772.831	0.25661023
773.016	0.25655013
773.201	0.25633561
773.386	0.25626775
773.571	0.25612693
773.756	0.25603596
773.941	0.25591558
774.126	0.25589151
774.311	0.25581627
774.496	0.25586886
774.681	0.25571512
774.866	0.25560957
775.051	0.25551373
775.236	0.25548845
775.421	0.25532347
775.606	0.25527432
775.791	0.25511621
775.976	0.25509725
776.16	0.2550487
776.345	0.25500387
776.53	0.25493871
776.715	0.25485272
776.899	0.25474229
777.084	0.25470259
777.269	0.25450243
777.454	0.25435409
777.638	0.25424345
777.823	0.25413186
778.008	0.25400097
778.192	0.25386138
778.377	0.25375305
778.561	0.25370749
778.746	0.25361765
778.931	0.25355185
779.115	0.25347827
779.3	0.25342251
779.484	0.25334477
779.669	0.2531697
779.853	0.25303615
780.037	0.25291717
780.222	0.25276183
780.406	0.25256834
780.591	0.25244152
780.775	0.25226052
780.959	0.2521519
781.144	0.2520378
781.328	0.25187413
781.512	0.25164982
781.697	0.25149146
781.881	0.25128837
782.065	0.25120143
782.249	0.25103368
782.434	0.25094594
782.618	0.25087623
782.802	0.25082914
782.986	0.25065236
783.17	0.25055579
783.354	0.25039865
783.539	0.25024978
783.723	0.25004691
783.907	0.24987033
784.091	0.24972242
784.275	0.24964128
784.459	0.24949954
784.643	0.24940246
784.827	0.24926433
785.011	0.24916492
785.195	0.24906596
785.379	0.24890891
785.563	0.2487479
785.747	0.24859967
785.93	0.24845511
786.114	0.24831557
786.298	0.24810566
786.482	0.24786212
786.666	0.24764639
786.85	0.24747409
787.033	0.24729743
787.217	0.24712427
787.401	0.24696213
787.585	0.24683742
787.768	0.24669213
787.952	0.24651628
788.136	0.24630013
788.319	0.24611301
788.503	0.2458227
788.687	0.24564413
788.87	0.24542497
789.054	0.24520727
789.237	0.24508888
789.421	0.24496679
789.605	0.24475424
789.788	0.24455806
789.972	0.24432343
790.155	0.2441228
790.338	0.24392443
790.522	0.24367135
790.705	0.24341833
790.889	0.24321772
791.072	0.24313005
791.256	0.2430183
791.439	0.24282286
791.622	0.24270743
791.806	0.24257902
791.989	0.24242058
792.172	0.24225168
792.355	0.24203312
792.539	0.24176636
792.722	0.24153823
792.905	0.24122331
793.088	0.24096465
793.271	0.24073073
793.455	0.24056063
793.638	0.24035739
793.821	0.24014971
794.004	0.23995723
794.187	0.23984658
794.37	0.23967929
794.553	0.23951142
794.736	0.23920236
794.919	0.23892943
795.102	0.2387323
795.285	0.23861252
795.468	0.23833315
795.651	0.23812359
795.834	0.23791327
796.017	0.23774687
796.2	0.23757229
796.383	0.23736313
796.566	0.23712689
796.749	0.23696269
796.931	0.23670817
797.114	0.23646651
797.297	0.23617872
797.48	0.23588875
797.663	0.23562992
797.845	0.23537851
798.028	0.23510072
798.211	0.23484745
798.393	0.23458287
798.576	0.23444581
798.759	0.23426484
798.941	0.23406939
799.124	0.23374741
799.307	0.23348398
799.489	0.23329723
799.672	0.23313526
799.854	0.23282668
800.037	0.2325654
800.219	0.23226469
800.402	0.23213617
800.584	0.23194169
800.767	0.23172355
800.949	0.23143993
801.132	0.23132917
801.314	0.23108248
801.496	0.23088478
801.679	0.23060899
801.861	0.23039418
802.043	0.23001326
802.226	0.22969668
802.408	0.22932582
802.59	0.22910353
802.772	0.22880721
802.955	0.22851517
803.137	0.22822903
803.319	0.22803872
803.501	0.22775226
803.684	0.22747239
803.866	0.22705689
804.048	0.22682642
804.23	0.22655539
804.412	0.22630835
804.594	0.22601882
804.776	0.22582747
804.958	0.22552974
805.14	0.22536388
805.322	0.22508764
805.504	0.22481379
805.686	0.22457988
805.868	0.22432326
806.05	0.22407383
806.232	0.22390074
806.414	0.22372102
806.596	0.22348243
806.778	0.22324483
806.96	0.22292416
807.141	0.22262637
807.323	0.22230311
807.505	0.22194281
807.687	0.22160746
807.869	0.2212882
808.05	0.22102279
808.232	0.22068385
808.414	0.2204645
808.595	0.22022611
808.777	0.21996848
808.959	0.21974777
809.14	0.21944816
809.322	0.21921201
809.504	0.21896141
809.685	0.21864745
809.867	0.21838565
810.048	0.21811931
810.23	0.21780448
810.411	0.21754624
810.593	0.21716765
810.774	0.21687102
810.956	0.21661022
811.137	0.2162031
811.319	0.2159138
811.5	0.21561608
811.681	0.21533316
811.863	0.21509285
812.044	0.21482537
812.225	0.21456783
812.407	0.21434886
812.588	0.21405288
812.769	0.21377585
812.951	0.21346927
813.132	0.21314651
813.313	0.21285401
813.494	0.21246461
813.675	0.21220496
813.857	0.21195416
814.038	0.21162961
814.219	0.21136073
814.4	0.21105514
814.581	0.21088143
814.762	0.21061732
814.943	0.21029725
815.124	0.2099873
815.305	0.2097327
815.486	0.20939534
815.667	0.20909015
815.848	0.20863245
816.029	0.20830023
816.21	0.20796551
816.391	0.20766682
816.572	0.20723534
816.753	0.20694112
816.934	0.20667772
817.115	0.20642262
817.295	0.20611613
817.476	0.20582609
817.657	0.20544305
817.838	0.20521793
818.019	0.20482802
818.199	0.20446092
818.38	0.20408734
818.561	0.20370574
818.741	0.2033946
818.922	0.20304102
819.103	0.20273076
819.283	0.20252142
819.464	0.20221397
819.645	0.20191193
819.825	0.20167431
820.006	0.20129233
820.186	0.20100675
820.367	0.20064472
820.547	0.20031904
820.728	0.19998506
820.908	0.19961105
821.089	0.19934116
821.269	0.19904308
821.45	0.19876611
821.63	0.19841246
821.81	0.19802004
821.991	0.19772262
822.171	0.19748598
822.351	0.19711032
822.532	0.19672858
822.712	0.19640819
822.892	0.19604899
823.072	0.19572679
823.253	0.19534218
823.433	0.19498953
823.613	0.1946504
823.793	0.19439614
823.973	0.1940699
824.154	0.19384106
824.334	0.19352943
824.514	0.19322614
824.694	0.1928633
824.874	0.19251377
825.054	0.19211624
825.234	0.19178616
825.414	0.19136508
825.594	0.19100871
825.774	0.19074402
825.954	0.19043519
826.134	0.19013073
826.314	0.18979978
826.494	0.18946899
826.674	0.18914015
826.854	0.18880137
827.033	0.18831093
827.213	0.18800322
827.393	0.18760009
827.573	0.18736927
827.753	0.18699511
827.932	0.18669293
828.112	0.18641282
828.292	0.1861639
828.472	0.18580007
828.651	0.18551889
828.831	0.18510908
829.011	0.18481257
829.19	0.18452294
829.37	0.18414526
829.549	0.18375995
829.729	0.18337328
829.909	0.18292841
830.088	0.18256113
830.268	0.18204536
830.447	0.18163219
830.627	0.18126372
830.806	0.18095774
830.986	0.18059581
831.165	0.18038514
831.344	0.1800887
831.524	0.17987311
831.703	0.17952068
831.883	0.17913291
832.062	0.17870353
832.241	0.17834397
832.421	0.17788079
832.6	0.17748283
832.779	0.1770736
832.958	0.17668997
833.138	0.1763603
833.317	0.17612137
833.496	0.17578666
833.675	0.17551174
833.854	0.17520842
834.034	0.17491037
834.213	0.17454742
834.392	0.17418578
834.571	0.17375323
834.75	0.17344658
834.929	0.17303442
835.108	0.17261163
835.287	0.17219185
835.466	0.17190272
835.645	0.17166888
835.824	0.17136486
836.003	0.1710179
836.182	0.17072933
836.361	0.17041041
836.54	0.17006751
836.719	0.16973252
836.897	0.16927723
837.076	0.16885974
837.255	0.16848475
837.434	0.16803029
837.613	0.16766617
837.791	0.16740602
837.97	0.16699993
838.149	0.16667538
838.328	0.16630281
838.506	0.16591705
838.685	0.16561605
838.864	0.16525647
839.042	0.164863
839.221	0.1645545
839.4	0.1641343
839.578	0.16380797
839.757	0.1634471
839.935	0.16318037
840.114	0.16285186
840.292	0.16244893
840.471	0.16207125
840.649	0.16175118
840.828	0.1614141
841.006	0.16106072
841.185	0.160533
841.363	0.16016791
841.541	0.15985869
841.72	0.15951807
841.898	0.15922872
842.076	0.1587999
842.255	0.15840679
842.433	0.15816154
842.611	0.15785773
842.789	0.15751686
842.968	0.15718882
843.146	0.15682945
843.324	0.15662233
843.502	0.15637196
843.68	0.15597765
843.859	0.1556676
844.037	0.15532626
844.215	0.15496879
844.393	0.15459784
844.571	0.15424286
844.749	0.15387835
844.927	0.15356181
845.105	0.15303962
845.283	0.15262419
845.461	0.1522071
845.639	0.15181449
845.817	0.15143644
845.995	0.15112623
846.173	0.15080387
846.351	0.1505337
846.529	0.15025425
846.706	0.14989669
846.884	0.14955599
847.062	0.14918519
847.24	0.14884155
847.418	0.1484736
847.595	0.14809494
847.773	0.14770577
847.951	0.14736174
848.129	0.14702245
848.306	0.14669353
848.484	0.14626426
848.662	0.14599319
848.839	0.14575747
849.017	0.14554812
849.194	0.14528299
849.372	0.14497213
849.549	0.14461659
849.727	0.14427453
849.905	0.14373883
850.082	0.14332905
850.26	0.14285296
850.437	0.14245653
850.614	0.1421118
850.792	0.14183897
850.969	0.1416006
851.147	0.14138307
851.324	0.14110263
851.501	0.14083538
851.679	0.14052157
851.856	0.14018333
852.033	0.13978142
852.211	0.13935303
852.388	0.13894837
852.565	0.13858331
852.742	0.13819838
852.92	0.13785243
853.097	0.13745584
853.274	0.13713733
853.451	0.13691559
853.628	0.13662966
853.805	0.13627327
853.982	0.13588408
854.159	0.13552364
854.336	0.13527211
854.514	0.13486661
854.691	0.13439471
854.868	0.13400514
855.045	0.13359107
855.221	0.13328841
855.398	0.13292614
855.575	0.13252488
855.752	0.13217684
855.929	0.13189783
856.106	0.13164272
856.283	0.13133914
856.46	0.13104586
856.637	0.13074202
856.813	0.13048905
856.99	0.13011853
857.167	0.12982443
857.344	0.12955613
857.52	0.12920868
857.697	0.12879958
857.874	0.12844652
858.05	0.12803913
858.227	0.12776502
858.404	0.12733132
858.58	0.1269519
858.757	0.12666624
858.933	0.12631168
859.11	0.12604941
859.287	0.12566446
859.463	0.1252758
859.64	0.12501105
859.816	0.12456109
859.993	0.12414608
860.169	0.12390701
860.345	0.1234718
860.522	0.12324117
860.698	0.12292756
860.875	0.1225622
861.051	0.12232842
861.227	0.12203283
861.404	0.12172644
861.58	0.12150392
861.756	0.12111219
861.932	0.12089675
862.109	0.12053243
862.285	0.12017857
862.461	0.11987686
862.637	0.11950211
862.813	0.11915353
862.99	0.11879574
863.166	0.11838321
863.342	0.11811946
863.518	0.11772818
863.694	0.11737047
863.87	0.11702487
864.046	0.11668271
864.222	0.1164625
864.398	0.11621102
864.574	0.1158756
864.75	0.11565505
864.926	0.11543163
865.102	0.1150987
865.278	0.11477492
865.454	0.11434773
865.63	0.11400732
865.805	0.11370645
865.981	0.11340207
866.157	0.11310687
866.333	0.11280079
866.509	0.11253489
866.684	0.11232781
866.86	0.11205228
867.036	0.11172995
867.212	0.11140426
867.387	0.11110061
867.563	0.11090682
867.739	0.11050835
867.914	0.11023021
868.09	0.10988366
868.265	0.10957137
868.441	0.10915228
868.617	0.10890278
868.792	0.10844287
868.968	0.10820977
869.143	0.10791136
869.319	0.10770663
869.494	0.10740685
869.67	0.10725618
869.845	0.10689021
870.02	0.10665634
870.196	0.10632888
870.371	0.10600981
870.546	0.10553595
870.722	0.10528452
870.897	0.10480915
871.072	0.10444556
871.248	0.10412666
871.423	0.10375796
871.598	0.10342604
871.773	0.10314119
871.949	0.10275356
872.124	0.10252845
872.299	0.10223827
872.474	0.10189194
872.649	0.10168093
872.824	0.10137136
872.999	0.10098786
873.174	0.10072059
873.349	0.10038508
873.524	0.10005715
873.699	0.09976957
873.874	0.09944754
874.049	0.09919527
874.224	0.09903478
874.399	0.09870271
874.574	0.09850573
874.749	0.09830657
874.924	0.09808982
875.099	0.0977844
875.274	0.09733076
875.449	0.09697373
875.623	0.09668104
875.798	0.09624072
875.973	0.09580687
876.148	0.09537294
876.322	0.09510561
876.497	0.09481431
876.672	0.09449952
876.846	0.09425418
877.021	0.09413139
877.196	0.09387021
877.37	0.09361003
877.545	0.09326522
877.72	0.09307355
877.894	0.09291453
878.069	0.0926174
878.243	0.09223889
878.418	0.09203144
878.592	0.09170879
878.767	0.09132929
878.941	0.09101211
879.116	0.09064059
879.29	0.09025641
879.464	0.08994866
879.639	0.08957036
879.813	0.08939488
879.987	0.08930349
880.162	0.08903089
880.336	0.08882221
880.51	0.08870423
880.685	0.08846775
880.859	0.08828822
881.033	0.08802603
881.207	0.08759971
881.381	0.08732792
881.556	0.08699628
881.73	0.08664993
881.904	0.08639371
882.078	0.08604811
882.252	0.08585214
882.426	0.0857465
882.6	0.08555724
882.774	0.08526768
882.948	0.08502502
883.122	0.0847904
883.296	0.08470348
883.47	0.08435527
883.644	0.08413649
883.818	0.08383682
883.992	0.08359518
884.166	0.08328494
884.34	0.08302434
884.514	0.08270008
884.687	0.08244312
884.861	0.08212016
885.035	0.08186559
885.209	0.08162615
885.382	0.08147933
885.556	0.08118484
885.73	0.08093833
885.904	0.08065091
886.077	0.08038239
886.251	0.08012719
886.425	0.07995506
886.598	0.07963479
886.772	0.07934542
886.945	0.07890363
887.119	0.07860306
887.292	0.07829906
887.466	0.07802399
887.64	0.07775857
887.813	0.07760696
887.986	0.07750722
888.16	0.0774349
888.333	0.07736365
888.507	0.07726681
888.68	0.07705105
888.854	0.07682247
889.027	0.07646446
889.2	0.07608894
889.374	0.07580463
889.547	0.07548354
889.72	0.07513054
889.893	0.07478709
890.067	0.07445619
890.24	0.074165
890.413	0.07379287
890.586	0.07344228
890.759	0.07314652
890.933	0.07290221
891.106	0.07272404
891.279	0.0726025
891.452	0.07248717
891.625	0.07243888
891.798	0.07233261
891.971	0.07210064
892.144	0.07179114
892.317	0.07148733
892.49	0.07110401
892.663	0.0707983
892.836	0.07045593
893.009	0.07010478
893.182	0.06996596
893.355	0.0697108
893.527	0.06963767
893.7	0.06947176
893.873	0.06918232
894.046	0.06904914
894.219	0.06901033
894.391	0.06870803
894.564	0.06859165
894.737	0.06818197
894.91	0.06796915
895.082	0.0677814
895.255	0.0674409
895.428	0.06705932
895.6	0.06668946
895.773	0.06640359
895.945	0.06620029
896.118	0.06594701
896.291	0.0658299
896.463	0.06568484
896.636	0.06554448
896.808	0.06549438
896.981	0.06522102
897.153	0.06514336
897.326	0.06489585
897.498	0.06444319
897.67	0.06416105
897.843	0.06392312
898.015	0.06370104
898.187	0.06351162
898.36	0.06317298
898.532	0.06293346
898.704	0.06292245
898.877	0.06267025
899.049	0.06247206
899.221	0.0622699
899.393	0.06209976
899.566	0.06198777
899.738	0.06191403
899.91	0.06169946
900.082	0.0616178
900.254	0.06141812
900.426	0.06126944
900.598	0.06101583
900.77	0.0607146
900.942	0.06029057
901.114	0.05991148
901.286	0.0595359
901.458	0.05920334
901.63	0.05888628
901.802	0.05866723
901.974	0.05854102
902.146	0.05853481
902.318	0.05855012
902.49	0.05851922
902.662	0.05839008
902.834	0.05817343
903.005	0.05804762
903.177	0.05781768
903.349	0.05741572
903.521	0.05706868
903.693	0.05679114
903.864	0.05652361
904.036	0.05628542
904.208	0.05594694
904.379	0.05565521
904.551	0.05557213
904.723	0.0554693
904.894	0.05535505
905.066	0.05523884
905.237	0.05519739
905.409	0.05512395
905.58	0.05507926
905.752	0.05488567
905.923	0.0546494
906.095	0.05434466
906.266	0.05412288
906.438	0.05376257
906.609	0.05359123
906.78	0.05315698
906.952	0.05303636
907.123	0.05281193
907.295	0.05275527
907.466	0.05256811
907.637	0.05251254
907.808	0.05230728
907.98	0.05228744
908.151	0.05201414
908.322	0.05196495
908.493	0.0517275
908.665	0.05165912
908.836	0.05141124
909.007	0.05124161
909.178	0.0511772
909.349	0.05100712
909.52	0.05067594
909.691	0.05040207
909.862	0.05003488
910.033	0.04984497
910.204	0.04962185
910.375	0.04929255
910.546	0.04902654
910.717	0.04880818
910.888	0.04872222
911.059	0.04872624
911.23	0.04862613
911.401	0.04846277
911.572	0.04823686
911.742	0.04810321
911.913	0.04794195
912.084	0.04766589
912.255	0.04724558
912.426	0.04686681
912.596	0.04663426
912.767	0.04651327
912.938	0.04629927
913.108	0.04602664
913.279	0.04591225
913.45	0.04581408
913.62	0.04578025
913.791	0.04566455
913.962	0.04538338
914.132	0.04532646
914.303	0.04527698
914.473	0.04515536
914.644	0.04512412
914.814	0.04504551
914.985	0.04477188
915.155	0.04472212
915.326	0.04442528
915.496	0.04429756
915.666	0.04419886
915.837	0.04395667
916.007	0.04372253
916.177	0.04362254
916.348	0.04348251
916.518	0.04348809
916.688	0.04330399
916.858	0.04309699
917.029	0.04292956
917.199	0.04276153
917.369	0.04272262
917.539	0.04258678
917.709	0.04230142
917.88	0.0422136
918.05	0.04202263
918.22	0.04176447
918.39	0.04142122
918.56	0.04118514
918.73	0.04087917
918.9	0.04081124
919.07	0.04054658
919.24	0.04041917
919.41	0.04046708
919.58	0.04039075
919.75	0.0401841
919.92	0.04018958
920.09	0.04004634
920.26	0.03991506
920.429	0.03970546
920.599	0.03945678
920.769	0.03938682
920.939	0.0392483
921.109	0.03896159
921.278	0.03869714
921.448	0.0385047
921.618	0.03823072
921.787	0.03805394
921.957	0.03792334
922.127	0.03774812
922.296	0.03771712
922.466	0.03759027
922.636	0.03759866
922.805	0.03769981
922.975	0.03751713
923.144	0.03736261
923.314	0.03734385
923.483	0.03715168
923.653	0.03696331
923.822	0.03671911
923.992	0.03648417
924.161	0.03644275
924.331	0.03629113
924.5	0.03607554
924.669	0.03590605
924.839	0.03588444
925.008	0.03578248
925.177	0.03562049
925.347	0.03550104
925.516	0.03540197
925.685	0.03533698
925.854	0.03527616
926.023	0.0351533
926.193	0.03501815
926.362	0.0348299
926.531	0.03466157
926.7	0.03444883
926.869	0.0343133
927.038	0.03407897
927.207	0.03401668
927.376	0.03382151
927.545	0.03364537
927.715	0.03347072
927.884	0.0334146
928.052	0.03333965
928.221	0.03334063
928.39	0.03317389
928.559	0.03319679
928.728	0.0332641
928.897	0.03326729
929.066	0.03316207
929.235	0.03300019
929.404	0.0330335
929.572	0.03295746
929.741	0.03280182
929.91	0.03274791
930.079	0.03272484
930.247	0.03253515
930.416	0.03255982
930.585	0.03240339
930.753	0.03237934
930.922	0.03224377
931.091	0.03205571
931.259	0.03168464
931.428	0.03178132
931.596	0.0315703
931.765	0.03139834
931.934	0.03118916
932.102	0.03103745
932.27	0.03090907
932.439	0.03078967
932.607	0.03050769
932.776	0.03028832
932.944	0.03009865
933.113	0.03001635
933.281	0.02984385
933.449	0.02976238
933.618	0.02981416
933.786	0.02985335
933.954	0.02977925
934.123	0.0297773
934.291	0.0296466
934.459	0.02970187
934.627	0.02957273
934.795	0.02951328
934.964	0.02946796
935.132	0.02923158
935.3	0.0290711
935.468	0.02901987
935.636	0.02902513
935.804	0.02904679
935.972	0.02901471
936.14	0.02902339
936.308	0.02928953
936.476	0.02920163
936.644	0.02923697
936.812	0.02919312
936.98	0.02897058
937.148	0.02940905
937.316	0.02907007
937.484	0.02917037
937.652	0.02929134
937.82	0.02912292
937.987	0.02908038
938.155	0.02962598
938.323	0.02908215
938.491	0.02931816
938.658	0.02874363
938.826	0.02903148
938.994	0.02888162
939.162	0.02871806
939.329	0.02883241
939.497	0.02933531
939.665	0.02943732
939.832	0.03040523
940	0.03070624
940.167	0.03138605
940.335	0.03208448
940.502	0.0315072
940.67	0.03100918
940.837	0.03079318
941.005	0.03078444
941.172	0.03068807
941.34	0.03100128
941.507	0.03206915
941.674	0.03191686
941.842	0.03202538
942.009	0.03306802
942.177	0.03291247
942.344	0.03302825
942.511	0.0325647
942.678	0.0312142
942.846	0.03200815
943.013	0.03235534
943.18	0.03104131
943.347	0.03137383
943.514	0.0312087
943.682	0.03250343
943.849	0.03283001
944.016	0.03198429
944.183	0.03224807
944.35	0.0335515
944.517	0.03334013
944.684	0.03355972
944.851	0.0317826
945.018	0.03223268
945.185	0.03300475
945.352	0.03291138
945.519	0.03179655
945.686	0.03176304
945.853	0.03167326
946.02	0.03225483
946.187	0.03149356
946.353	0.03163621
946.52	0.03037889
946.687	0.03021993
946.854	0.02991721
947.021	0.02988456
947.187	0.02982429
947.354	0.02931245
947.521	0.02925733
947.687	0.02989212
947.854	0.03048325
948.021	0.03036676
948.187	0.03042733
948.354	0.02911598
948.52	0.02938308
948.687	0.02899076
948.854	0.02953074
949.02	0.02870564
949.187	0.02877875
949.353	0.02819225
949.52	0.02883956
949.686	0.02815684
949.852	0.02752008
950.019	0.02680174
950.185	0.02728201
950.352	0.02654688
950.518	0.02584973
950.684	0.02623716
950.851	0.02622497
951.017	0.02647601
951.183	0.02629571
951.349	0.02635086
951.516	0.02627433
951.682	0.02573454
951.848	0.0247162
952.014	0.024469
952.18	0.02408023
952.346	0.02360123
952.512	0.02267371
952.679	0.02249658
952.845	0.02298701
953.011	0.02335612
953.177	0.02343511
953.343	0.02322993
953.509	0.02326362
953.675	0.02294861
953.841	0.02316173
954.007	0.02313213
954.172	0.02307459
954.338	0.02285323
954.504	0.02286383
954.67	0.0223313
954.836	0.0224005
955.002	0.02201853
955.167	0.021511
955.333	0.0206515
955.499	0.02057904
955.665	0.02044361
955.83	0.02047093
955.996	0.02015179
956.162	0.01968999
956.327	0.01973984
956.493	0.01977805
956.659	0.01950226
956.824	0.01938767
956.99	0.01883393
957.155	0.01917817
957.321	0.01923266
957.486	0.01906645
957.652	0.01893978
957.817	0.01901987
957.983	0.01857155
958.148	0.0190995
958.314	0.01884163
958.479	0.01850137
958.644	0.01879299
958.81	0.01851752
958.975	0.01857852
959.14	0.01866406
959.306	0.01822618
959.471	0.01816183
959.636	0.01842848
959.801	0.01776319
959.967	0.01793672
960.132	0.01751284
960.297	0.01740776
960.462	0.01778139
960.627	0.01747671
960.792	0.01739576
960.957	0.01756223
961.123	0.01735694
961.288	0.01758424
961.453	0.01737815
961.618	0.01710373
961.783	0.01730095
961.948	0.01714783
962.113	0.01718897
962.277	0.01711088
962.442	0.01667156
962.607	0.01685974
962.772	0.016485
962.937	0.0164027
963.102	0.01603018
963.267	0.01569536
963.431	0.01560941
963.596	0.01590469
963.761	0.01577971
963.926	0.01575909
964.09	0.01566187
964.255	0.01604065
964.42	0.01621466
964.584	0.016531
964.749	0.01611458
964.914	0.01583021
965.078	0.01562004
965.243	0.01561429
965.407	0.01522365
965.572	0.01471864
965.736	0.01460563
965.901	0.01437441
966.065	0.01416612
966.23	0.01439358
966.394	0.01445779
966.559	0.01485052
966.723	0.01490335
966.887	0.01453885
967.052	0.01466433
967.216	0.01496834
967.38	0.0152253
967.545	0.01540658
967.709	0.01524824
967.873	0.01544959
968.037	0.01556255
968.202	0.01579955
968.366	0.01568549
968.53	0.01546677
968.694	0.01552193
968.858	0.01561741
969.022	0.01528901
969.187	0.01522584
969.351	0.01506778
969.515	0.01504718
969.679	0.0149485
969.843	0.01432451
970.007	0.01386389
970.171	0.01433048
970.335	0.01421784
970.499	0.01425758
970.662	0.01456691
970.826	0.01434859
970.99	0.01433689
971.154	0.01430406
971.318	0.01345249
971.482	0.01357357
971.645	0.01338965
971.809	0.01293024
971.973	0.01328045
972.137	0.01322473
972.3	0.01337359
972.464	0.01399225
972.628	0.01346316
972.791	0.01328174
972.955	0.01329391
973.119	0.01251386
973.282	0.01233394
973.446	0.01224831
973.609	0.01234942
973.773	0.0127137
973.936	0.01272976
974.1	0.01251013
974.263	0.01273976
974.427	0.01295542
974.59	0.01273905
974.754	0.01262965
974.917	0.01251732
975.08	0.01256157
975.244	0.01248309
975.407	0.01240274
975.57	0.01220428
975.734	0.01228818
975.897	0.01191021
976.06	0.01215597
976.223	0.0120623
976.387	0.01239324
976.55	0.01236005
976.713	0.01207598
976.876	0.01180347
977.039	0.01179428
977.202	0.01171325
977.365	0.0119293
977.528	0.01174992
977.692	0.01174573
977.855	0.01219417
978.018	0.01248844
978.181	0.0124954
978.344	0.01211587
978.506	0.0118465
978.669	0.01146885
978.832	0.01166722
978.995	0.01106348
979.158	0.01103537
979.321	0.01068182
979.484	0.01085632
979.646	0.01101844
979.809	0.01124573
979.972	0.01134745
980.135	0.01172175
980.297	0.01163712
980.46	0.01223202
980.623	0.01239731
980.786	0.01225268
980.948	0.01243419
981.111	0.01207567
981.273	0.01192296
981.436	0.01222901
981.599	0.01198219
981.761	0.01184265
981.924	0.01188837
982.086	0.01178008
982.249	0.01163467
982.411	0.01185487
982.573	0.01133945
982.736	0.01146571
982.898	0.01160575
983.061	0.01155763
983.223	0.01176761
983.385	0.01215412
983.548	0.01168665
983.71	0.01200836
983.872	0.01207892
984.034	0.0120855
984.197	0.01192707
984.359	0.01160638
984.521	0.01186577
984.683	0.01219668
984.845	0.01220354
985.008	0.01172565
985.17	0.01129655
985.332	0.01111233
985.494	0.01156024
985.656	0.01087052
985.818	0.01037101
985.98	0.01014875
986.142	0.01002922
986.304	0.01016
986.466	0.00980389
986.628	0.00927316
986.79	0.00971702
986.952	0.00993663
987.113	0.00979469
987.275	0.01024176
987.437	0.01003403
987.599	0.01019705
987.761	0.01011503
987.922	0.01055391
988.084	0.01064003
988.246	0.01074226
988.408	0.01055423
988.569	0.0109564
988.731	0.01110385
988.893	0.01080985
989.054	0.01022961
989.216	0.00979462
989.377	0.01031309
989.539	0.01049326
989.701	0.01038145
989.862	0.01048464
990.024	0.01066177
990.185	0.01043982
990.347	0.0109724
990.508	0.01093474
990.669	0.01085191
990.831	0.01097306
990.992	0.0114971
991.154	0.01202784
991.315	0.01231853
991.476	0.01245004
991.638	0.01182706
991.799	0.01159491
991.96	0.0114769
992.121	0.01115952
992.283	0.01062952
992.444	0.01053466
992.605	0.01124898
992.766	0.01142763
992.927	0.01192128
993.088	0.0114065
993.249	0.01162106
993.41	0.01154211
993.572	0.01146854
993.733	0.01068134
993.894	0.01041802
994.055	0.00995616
994.216	0.01088352
994.376	0.01026787
994.537	0.01074816
994.698	0.01061715
994.859	0.01035134
995.02	0.01117158
995.181	0.01070194
995.342	0.00991824
995.503	0.01084291
995.663	0.01100745
995.824	0.01094056
995.985	0.01158977
996.146	0.01112327
996.306	0.01217973
996.467	0.01300418
996.628	0.01257748
996.788	0.01142549
996.949	0.01209251
997.11	0.01106559
997.27	0.00977326
997.431	0.0101649
997.591	0.01000612
997.752	0.0096292
997.912	0.0112572
998.073	0.01083188
998.233	0.01147048
998.394	0.01219329
998.554	0.01129021
998.714	0.01102783
998.875	0.01122733
999.035	0.00950673
999.196	0.01000848
999.356	0.00957914
999.516	0.00984245
999.676	0.01003316
999.837	0.00995921
999.997	0.00996071
1000.157	0.01098987
1000.317	0.01027764
1000.477	0.01050426
1000.638	0.01047707
1000.798	0.01003894
1000.958	0.00977857
1001.118	0.01077683
1001.278	0.01059293
1001.438	0.01005402
1001.598	0.01052566
1001.758	0.01015088
1001.918	0.01123278
1002.078	0.01084232
1002.238	0.01002476
1002.398	0.00943817
1002.558	0.01005575
1002.718	0.01007926
1002.878	0.01043777
1003.037	0.00953297
1003.197	0.01008598
1003.357	0.01013358
1003.517	0.01092722
1003.677	0.0111632
1003.836	0.01045939
1003.996	0.01010314
1004.156	0.01110183
1004.315	0.01104614
1004.475	0.01009142
1004.635	0.00949915
1004.794	0.00977607
1004.954	0.01057533
1005.114	0.01154185
1005.273	0.0116875
1005.433	0.01089139
1005.592	0.01077379
1005.752	0.01061077
1005.911	0.01025812
1006.071	0.00983936
1006.23	0.00894718
1006.389	0.0077807
1006.549	0.00881047
1006.708	0.01105315
1006.868	0.01210478
1007.027	0.01228613
1007.186	0.01300868
1007.345	0.01335084
1007.505	0.01466
1007.664	0.01557306
1007.823	0.0138954
1007.982	0.01363853
1008.142	0.01479651
1008.301	0.01489744
1008.46	0.0150077
1008.619	0.01380789
1008.778	0.01277785
1008.937	0.01352091
1009.096	0.01431206
1009.255	0.01424624
1009.414	0.01212473
1009.573	0.01299245
1009.732	0.01364991
1009.891	0.01324874
1010.05	0.01341429
1010.209	0.01213878
1010.368	0.01056266
1010.527	0.0126264
1010.686	0.01209155
1010.845	0.01116409
1011.003	0.0124007
1011.162	0.01181602
1011.321	0.01238658
1011.48	0.01346006
1011.638	0.01417911
1011.797	0.01417664
1011.956	0.01510164
1012.115	0.01533378
1012.273	0.01463031
1012.432	0.01592282
1012.59	0.01554439
1012.749	0.0126129
1012.908	0.01349875
1013.066	0.01459433
1013.225	0.0137153
1013.383	0.0171742
1013.542	0.01778337
1013.7	0.01960917
1013.859	0.02234924
1014.017	0.02266099
1014.175	0.02096458
1014.334	0.02333633
1014.492	0.02021171
1014.65	0.02032061
1014.809	0.02008818
1014.967	0.01978801
1015.125	0.01962596
1015.284	0.01949325
1015.442	0.01764995
1015.6	0.0200533
1015.758	0.0181865
1015.916	0.01628477
1016.075	0.01482989
1016.233	0.0133985
1016.391	0.01311465
1016.549	0.0162002
1016.707	0.01218363
1016.865	0.01267754
1017.023	0.01190406
1017.181	0.01287428
1017.339	0.01378767
1017.497	0.01388289
1017.655	0.01126038
1017.813	0.01283553
1017.971	0.01538227
1018.129	0.01743841
1018.286	0.02024804
1018.444	0.02044274
1018.602	0.0206564
1018.76	0.02007922
1018.918	0.02079239
1019.075	0.01925183
1019.233	0.01763795
1019.391	0.01615504
1019.549	0.0144893
1019.706	0.01786984
1019.864	0.01603961
1020.022	0.01711445
1020.179	0.01630462
1020.337	0.01636506
1020.494	0.01296266
1020.652	0.01487269
1020.809	0.01347669
1020.967	0.01533672
1021.124	0.01635088
1021.282	0.01568047
1021.439	0.01554338
1021.597	0.01630964
1021.754	0.01907114
1021.911	0.01790557
1022.069	0.01870692
1022.226	0.0147218
1022.384	0.01418215
1022.541	0.01690999
1022.698	0.01951872
1022.855	0.01747081
1023.013	0.01753235
1023.17	0.01911319
1023.327	0.02129393
1023.484	0.02373824
1023.641	0.02247235
1023.798	0.02538329
1023.956	0.02604107
1024.113	0.02681579
1024.27	0.0250997
1024.427	0.02703937
1024.584	0.02537857
1024.741	0.02508153
1024.898	0.01854641
1025.055	0.02004308
1025.212	0.02162012
1025.369	0.02257641
1025.525	0.02356608
1025.682	0.02346684
1025.839	0.02708929
1025.996	0.03353806
1026.153	0.03239552
1026.31	0.0328749
1026.466	0.03397816
1026.623	0.03239875
1026.78	0.03507424
1026.937	0.0352083
1027.093	0.02858232
1027.25	0.03308459
1027.407	0.03343739
1027.563	0.03291207
1027.72	0.03976053
1027.876	0.04134167
1028.033	0.04068072
1028.19	0.04825401
1028.346	0.04135821
1028.503	0.04200958
1028.659	0.0414769
1028.816	0.03496981
1028.972	0.03490297
1029.128	0.03668144
1029.285	0.0297791
1029.441	0.03271697
1029.598	0.0342234
1029.754	0.03628244
1029.91	0.03557821
1030.067	0.03379673
1030.223	0.03148993
1030.379	0.03523401
1030.535	0.03522072
1030.691	0.03421422
1030.848	0.03627612
1031.004	0.03506978
1031.16	0.03633958
1031.316	0.03612444
1031.472	0.03790148
1031.628	0.03405515
1031.784	0.02867478
1031.94	0.02569968
1032.096	0.03531118
1032.252	0.03460316
1032.408	0.03810782
1032.564	0.0365047
1032.72	0.04266766
1032.876	0.04330809
1033.032	0.04383479
1033.188	0.03463731
1033.344	0.0343197
1033.5	0.03153406
1033.655	0.03197033
1033.811	0.02898725
1033.967	0.03180937
