Data from 0_1_mm_pl_20pc_Absorbance__0__17-48-55-547.txt Node

Date: Wed Mar 01 17:48:55 CET 2023
User: Ange
Spectrometer: FLMT08341
Trigger mode: 0
Integration Time (sec): 1.000000E-2
Scans to average: 400
Electric dark correction enabled: true
Nonlinearity correction enabled: false
Boxcar width: 3
XAxis mode: Wavelengths
Number of Pixels in Spectrum: 3648
>>>>>Begin Spectral Data<<<<<
345.271	-0.01796595
345.487	0.00570909
345.704	0.00096432
345.921	0.00961211
346.137	0.01653637
346.354	0.01594946
346.571	0.03411608
346.787	0.11635805
347.004	0.05340559
347.22	0.03951563
347.437	0.009909
347.653	-0.19388706
347.87	0.18867142
348.086	0.23713139
348.303	-0.09107464
348.519	0.07021949
348.736	0.06875265
348.952	0.06720889
349.169	0.06838518
349.385	0.07329481
349.601	0.07397106
349.818	0.07528419
350.034	0.07466631
350.251	0.07512955
350.467	0.07595559
350.683	0.07343774
350.9	0.0740348
351.116	0.07462564
351.332	0.073084
351.549	0.07614626
351.765	0.0804399
351.981	0.08053303
352.197	0.08402159
352.414	0.08641862
352.63	0.09044272
352.846	0.0932415
353.062	0.0899424
353.278	0.08509658
353.495	0.08687855
353.711	0.08660842
353.927	0.08537075
354.143	0.08182787
354.359	0.08205897
354.575	0.08314212
354.792	0.0870709
355.008	0.08586268
355.224	0.08541338
355.44	0.08488676
355.656	0.0850859
355.872	0.08555058
356.088	0.09061151
356.304	0.09006348
356.52	0.09195646
356.736	0.09239269
356.952	0.09555193
357.168	0.09557198
357.384	0.09674219
357.6	0.09390065
357.816	0.09575708
358.032	0.09618562
358.248	0.09982775
358.464	0.09876578
358.679	0.10136711
358.895	0.10196144
359.111	0.10187866
359.327	0.10106203
359.543	0.10343203
359.759	0.10356353
359.974	0.10345829
360.19	0.10304069
360.406	0.10350998
360.622	0.10493935
360.838	0.10343124
361.053	0.10276877
361.269	0.10347292
361.485	0.10469023
361.701	0.10511048
361.916	0.10384813
362.132	0.10302202
362.348	0.10494933
362.563	0.10418439
362.779	0.10325992
362.995	0.10395369
363.21	0.10611266
363.426	0.10648497
363.641	0.10849372
363.857	0.1109021
364.073	0.11121281
364.288	0.11229587
364.504	0.11361321
364.719	0.11438324
364.935	0.1144114
365.15	0.11467296
365.366	0.11349184
365.581	0.11545406
365.797	0.11607768
366.012	0.11508651
366.228	0.11321554
366.443	0.11503974
366.658	0.114918
366.874	0.11419426
367.089	0.11440559
367.305	0.11438098
367.52	0.11614093
367.735	0.11786037
367.951	0.11795525
368.166	0.11726906
368.381	0.11898609
368.597	0.11710095
368.812	0.11717418
369.027	0.11640403
369.243	0.11631819
369.458	0.11847714
369.673	0.12084425
369.888	0.12134179
370.104	0.12324209
370.319	0.12405666
370.534	0.12462937
370.749	0.12403491
370.964	0.12384314
371.179	0.1223684
371.395	0.12278523
371.61	0.12319966
371.825	0.12290455
372.04	0.12321125
372.255	0.12394293
372.47	0.12422619
372.685	0.12622555
372.9	0.12658897
373.115	0.12672886
373.33	0.12771751
373.545	0.12847915
373.76	0.12992786
373.975	0.12891751
374.19	0.12815764
374.405	0.12859453
374.62	0.12951983
374.835	0.12974964
375.05	0.13022405
375.265	0.1301073
375.48	0.13098152
375.695	0.13304728
375.91	0.13263834
376.125	0.13310426
376.339	0.13402444
376.554	0.13536197
376.769	0.13637308
376.984	0.13760658
377.199	0.13817566
377.414	0.13908006
377.628	0.14089674
377.843	0.14178384
378.058	0.14110007
378.273	0.14158833
378.487	0.14143793
378.702	0.14185169
378.917	0.14274108
379.131	0.14173054
379.346	0.14084128
379.561	0.14143653
379.775	0.14196257
379.99	0.141931
380.205	0.14103249
380.419	0.14007816
380.634	0.13941891
380.848	0.1397711
381.063	0.13979687
381.278	0.1399436
381.492	0.13989278
381.707	0.14076355
381.921	0.14181655
382.136	0.14411225
382.35	0.14512322
382.565	0.14552862
382.779	0.14592486
382.994	0.14706729
383.208	0.14700197
383.422	0.14845061
383.637	0.14853317
383.851	0.14946322
384.066	0.15062036
384.28	0.15113743
384.494	0.15188983
384.709	0.15364228
384.923	0.15350457
385.137	0.15300279
385.352	0.15292657
385.566	0.15334174
385.78	0.15370524
385.995	0.15313403
386.209	0.15195802
386.423	0.15294449
386.637	0.15359813
386.852	0.15324302
387.066	0.15359981
387.28	0.15384035
387.494	0.15569619
387.708	0.15622886
387.923	0.15601317
388.137	0.1565679
388.351	0.1569554
388.565	0.15719598
388.779	0.15767211
388.993	0.15808651
389.207	0.15912274
389.421	0.159413
389.635	0.15949692
389.85	0.15990327
390.064	0.16000365
390.278	0.16049794
390.492	0.16045586
390.706	0.16078869
390.92	0.16117967
391.134	0.16190601
391.348	0.16337635
391.561	0.16394759
391.775	0.16376334
391.989	0.16329144
392.203	0.16373298
392.417	0.1645749
392.631	0.16499336
392.845	0.16500187
393.059	0.16529747
393.273	0.16557715
393.486	0.16601163
393.7	0.16568866
393.914	0.16610491
394.128	0.16650121
394.342	0.16607435
394.555	0.16531013
394.769	0.16547096
394.983	0.1661826
395.197	0.16700567
395.41	0.16687354
395.624	0.16721499
395.838	0.16786957
396.051	0.16986239
396.265	0.16999211
396.479	0.17021997
396.692	0.1708543
396.906	0.17092182
397.12	0.17086806
397.333	0.17158887
397.547	0.17132916
397.76	0.17202863
397.974	0.17237405
398.187	0.17240848
398.401	0.17298399
398.614	0.17332087
398.828	0.17324257
399.041	0.17367053
399.255	0.17405563
399.468	0.17423882
399.682	0.17447591
399.895	0.17465013
400.109	0.17490099
400.322	0.17548907
400.536	0.17454395
400.749	0.17466897
400.962	0.17444392
401.176	0.17462742
401.389	0.17459659
401.602	0.17384781
401.816	0.1736434
402.029	0.17448854
402.242	0.17463577
402.456	0.17496578
402.669	0.17493775
402.882	0.17425364
403.095	0.1752034
403.309	0.17550609
403.522	0.17563653
403.735	0.17517096
403.948	0.1753975
404.161	0.17616942
404.375	0.17664294
404.588	0.17691432
404.801	0.17675766
405.014	0.17654328
405.227	0.17757709
405.44	0.17822749
405.653	0.17819193
405.866	0.17832753
406.079	0.1782612
406.293	0.1786461
406.506	0.17868654
406.719	0.17823337
406.932	0.17732926
407.145	0.17671591
407.358	0.17708303
407.571	0.17672279
407.784	0.17684234
407.996	0.17736242
408.209	0.17707298
408.422	0.17716131
408.635	0.17670865
408.848	0.17679536
409.061	0.17654507
409.274	0.17613325
409.487	0.17530733
409.7	0.17529243
409.912	0.17531885
410.125	0.17595485
410.338	0.1755974
410.551	0.17552674
410.764	0.17523194
410.976	0.17544379
411.189	0.17535238
411.402	0.1752305
411.615	0.17501794
411.827	0.17509644
412.04	0.17501016
412.253	0.17451369
412.465	0.17408516
412.678	0.17381404
412.891	0.17367139
413.103	0.17289566
413.316	0.17245427
413.529	0.17249275
413.741	0.17296569
413.954	0.17296684
414.166	0.17282859
414.379	0.17252009
414.591	0.17264877
414.804	0.1723675
415.016	0.17191837
415.229	0.17106072
415.441	0.17066968
415.654	0.17073239
415.866	0.17052275
416.079	0.17033108
416.291	0.1699292
416.504	0.16978704
416.716	0.17007292
416.928	0.16969818
417.141	0.16915239
417.353	0.16896721
417.566	0.16839856
417.778	0.16838913
417.99	0.16788665
418.203	0.16707255
418.415	0.16690983
418.627	0.16657262
418.839	0.16614118
419.052	0.16626597
419.264	0.16589659
419.476	0.16597844
419.688	0.16604013
419.901	0.16606192
420.113	0.16539597
420.325	0.16494132
420.537	0.16411071
420.749	0.16389548
420.961	0.1633239
421.174	0.16273002
421.386	0.16192015
421.598	0.16192462
421.81	0.16141421
422.022	0.16129211
422.234	0.16061402
422.446	0.1600759
422.658	0.15966956
422.87	0.15944689
423.082	0.15873874
423.294	0.15852317
423.506	0.15798685
423.718	0.15765506
423.93	0.15713142
424.142	0.15663081
424.354	0.15604202
424.566	0.15570656
424.778	0.15524449
424.99	0.15463977
425.202	0.15387659
425.414	0.15346289
425.625	0.15308816
425.837	0.15238956
426.049	0.15185497
426.261	0.15102988
426.473	0.15050958
426.684	0.15018845
426.896	0.14978789
427.108	0.14916957
427.32	0.148877
427.531	0.14819893
427.743	0.14785037
427.955	0.14753218
428.167	0.14669412
428.378	0.14614106
428.59	0.14562826
428.802	0.14524217
429.013	0.14497926
429.225	0.14444828
429.436	0.14371499
429.648	0.14347736
429.86	0.1427721
430.071	0.14222852
430.283	0.14134495
430.494	0.14055465
430.706	0.13996564
430.917	0.13936889
431.129	0.13888406
431.34	0.13842055
431.552	0.13792163
431.763	0.13731264
431.975	0.13689437
432.186	0.13622888
432.398	0.13574868
432.609	0.13479539
432.821	0.1341958
433.032	0.13336189
433.243	0.13285029
433.455	0.13226865
433.666	0.131813
433.877	0.13127696
434.089	0.13063257
434.3	0.13001248
434.511	0.12944488
434.723	0.12886462
434.934	0.1282916
435.145	0.12759607
435.356	0.1270014
435.568	0.1266917
435.779	0.12610893
435.99	0.125414
436.201	0.12477176
436.412	0.12410549
436.624	0.12367066
436.835	0.12317362
437.046	0.12251245
437.257	0.12187607
437.468	0.12139496
437.679	0.1209304
437.89	0.12032096
438.101	0.11971346
438.312	0.118998
438.523	0.11818386
438.734	0.11757639
438.945	0.11697886
439.156	0.11626909
439.367	0.11564017
439.578	0.11505231
439.789	0.11411701
440	0.11380859
440.211	0.11314284
440.422	0.11249763
440.633	0.11173222
440.844	0.11088722
441.055	0.11005988
441.266	0.10966774
441.477	0.1087542
441.687	0.10803186
441.898	0.10749349
442.109	0.10696072
442.32	0.10652471
442.531	0.10604476
442.741	0.10526201
442.952	0.10470563
443.163	0.10409582
443.374	0.10313343
443.584	0.10244085
443.795	0.101687
444.006	0.10080702
444.216	0.10022326
444.427	0.09951397
444.638	0.09879482
444.848	0.098162
445.059	0.09740813
445.27	0.09656447
445.48	0.09574842
445.691	0.09495132
445.901	0.09419463
446.112	0.09362423
446.323	0.09286519
446.533	0.09212222
446.744	0.0915887
446.954	0.0910574
447.165	0.09045455
447.375	0.08990804
447.586	0.08926076
447.796	0.08853568
448.006	0.08801431
448.217	0.08736003
448.427	0.08670936
448.638	0.08605672
448.848	0.08536675
449.058	0.0846778
449.269	0.08427331
449.479	0.08363192
449.689	0.08302471
449.9	0.08248873
450.11	0.08179173
450.32	0.0812234
450.531	0.08049011
450.741	0.07974308
450.951	0.07905701
451.161	0.07828983
451.372	0.07760258
451.582	0.07713941
451.792	0.07645503
452.002	0.07572733
452.212	0.07528503
452.422	0.07476814
452.633	0.0743112
452.843	0.07382451
453.053	0.07313613
453.263	0.07257385
453.473	0.07217181
453.683	0.0717604
453.893	0.07110579
454.103	0.07054331
454.313	0.06988955
454.523	0.0693406
454.733	0.06882606
454.943	0.06820941
455.153	0.06758946
455.363	0.06703632
455.573	0.06643403
455.783	0.06599232
455.993	0.06548053
456.203	0.0650062
456.413	0.06444815
456.623	0.06393369
456.833	0.06347068
457.042	0.06292214
457.252	0.0623109
457.462	0.06176871
457.672	0.06129156
457.882	0.06091288
458.091	0.06038759
458.301	0.05991335
458.511	0.05959237
458.721	0.05910677
458.931	0.05870111
459.14	0.05821769
459.35	0.05774567
459.56	0.05722782
459.769	0.05682007
459.979	0.05630811
460.189	0.05591472
460.398	0.0554435
460.608	0.05504574
460.817	0.05463199
461.027	0.05412246
461.237	0.05355038
461.446	0.05315053
461.656	0.05271978
461.865	0.05217962
462.075	0.05168911
462.284	0.05132987
462.494	0.05113371
462.703	0.05088077
462.913	0.05045552
463.122	0.05009104
463.332	0.04987625
463.541	0.04948412
463.751	0.049018
463.96	0.04848513
464.169	0.04801452
464.379	0.04772658
464.588	0.04740966
464.797	0.04698438
465.007	0.04674161
465.216	0.04649073
465.425	0.04612941
465.635	0.04579272
465.844	0.04540793
466.053	0.04507981
466.263	0.04465448
466.472	0.04424942
466.681	0.04391073
466.89	0.04352974
467.099	0.04336953
467.309	0.04297112
467.518	0.04259542
467.727	0.04234185
467.936	0.04195194
468.145	0.0416296
468.354	0.04146134
468.563	0.04104562
468.772	0.04081081
468.982	0.04051104
469.191	0.04020071
469.4	0.03989612
469.609	0.03962886
469.818	0.03923889
470.027	0.03894845
470.236	0.03871867
470.445	0.03839194
470.654	0.03810054
470.863	0.03788393
471.072	0.03759076
471.28	0.03734876
471.489	0.03721755
471.698	0.03681435
471.907	0.03669433
472.116	0.03647276
472.325	0.03626354
472.534	0.03604038
472.743	0.035778
472.951	0.03534381
473.16	0.03515109
473.369	0.03490874
473.578	0.03469503
473.786	0.03446907
473.995	0.03418138
474.204	0.03405068
474.413	0.03390167
474.621	0.03377326
474.83	0.03355507
475.039	0.03337364
475.247	0.03317115
475.456	0.03306816
475.665	0.03282423
475.873	0.03266981
476.082	0.03242338
476.291	0.03230167
476.499	0.03219162
476.708	0.03203602
476.916	0.03197789
477.125	0.03185129
477.333	0.0317414
477.542	0.03167022
477.75	0.03150487
477.959	0.03137934
478.167	0.03132721
478.376	0.0310953
478.584	0.03097033
478.793	0.03074944
479.001	0.03055743
479.209	0.03037166
479.418	0.03021009
479.626	0.03006515
479.834	0.02994255
480.043	0.02985274
480.251	0.02973229
480.459	0.02962282
480.668	0.02955405
480.876	0.0294141
481.084	0.02927139
481.293	0.02921157
481.501	0.02915437
481.709	0.02906669
481.917	0.02901783
482.125	0.02889477
482.334	0.02885138
482.542	0.02876753
482.75	0.02862034
482.958	0.02846276
483.166	0.0283457
483.374	0.02824172
483.583	0.02821372
483.791	0.02813229
483.999	0.02803316
484.207	0.02796108
484.415	0.02790169
484.623	0.02782543
484.831	0.02774317
485.039	0.02766301
485.247	0.02759899
485.455	0.02753252
485.663	0.02740796
485.871	0.02732867
486.079	0.02735011
486.287	0.02728414
486.495	0.02711917
486.702	0.02700617
486.91	0.02690234
487.118	0.02698099
487.326	0.0269947
487.534	0.0269883
487.742	0.02694477
487.95	0.02697173
488.157	0.02696366
488.365	0.0270319
488.573	0.02692832
488.781	0.0268518
488.988	0.02682967
489.196	0.02686281
489.404	0.02690379
489.612	0.02690962
489.819	0.02688497
490.027	0.02688799
490.235	0.02695978
490.442	0.02692905
490.65	0.02695389
490.857	0.02693843
491.065	0.02698603
491.273	0.02699544
491.48	0.02697926
491.688	0.02699858
491.895	0.02702464
492.103	0.02698482
492.31	0.02696368
492.518	0.02692396
492.725	0.0269239
492.933	0.0270243
493.14	0.02699123
493.348	0.0270399
493.555	0.02713469
493.763	0.02719885
493.97	0.0272227
494.177	0.02725904
494.385	0.02722204
494.592	0.02721488
494.8	0.0272244
495.007	0.02717534
495.214	0.02718804
495.422	0.02723272
495.629	0.02728375
495.836	0.02735735
496.043	0.02744651
496.251	0.02746332
496.458	0.02757998
496.665	0.02766186
496.872	0.02774191
497.08	0.02775408
497.287	0.02775632
497.494	0.02781143
497.701	0.02788028
497.908	0.02785711
498.115	0.02789799
498.322	0.0278574
498.53	0.02790989
498.737	0.0280389
498.944	0.02811483
499.151	0.02817063
499.358	0.0282494
499.565	0.0283116
499.772	0.02849454
499.979	0.02861837
500.186	0.02870516
500.393	0.028731
500.6	0.02885117
500.807	0.02901176
501.014	0.02913789
501.221	0.02922018
501.427	0.02932299
501.634	0.02935756
501.841	0.02942265
502.048	0.02948575
502.255	0.02952615
502.462	0.02957868
502.669	0.02959352
502.875	0.02967928
503.082	0.02977013
503.289	0.02993612
503.496	0.02999686
503.702	0.03005678
503.909	0.03014358
504.116	0.03025308
504.323	0.03030291
504.529	0.03045191
504.736	0.03049832
504.943	0.03061994
505.149	0.03068148
505.356	0.03075642
505.563	0.03084724
505.769	0.03098145
505.976	0.03103855
506.182	0.03113215
506.389	0.03120424
506.595	0.03135256
506.802	0.03146811
507.008	0.03158017
507.215	0.03168027
507.421	0.03175392
507.628	0.03188157
507.834	0.03198237
508.041	0.03205474
508.247	0.03216289
508.454	0.0322792
508.66	0.03234549
508.866	0.03245957
509.073	0.03260597
509.279	0.03275095
509.486	0.03288774
509.692	0.03303486
509.898	0.03319124
510.105	0.03340009
510.311	0.03357349
510.517	0.03364891
510.723	0.03381834
510.93	0.03396441
511.136	0.0341307
511.342	0.03422512
511.548	0.03434139
511.754	0.03449177
511.961	0.03465769
512.167	0.03480308
512.373	0.0349727
512.579	0.03511686
512.785	0.03532605
512.991	0.03541896
513.197	0.03555602
513.404	0.03568753
513.61	0.03579387
513.816	0.0358625
514.022	0.03600007
514.228	0.03612233
514.434	0.03632229
514.64	0.03643886
514.846	0.03658592
515.052	0.03675508
515.258	0.0369697
515.464	0.03709388
515.669	0.0371956
515.875	0.03732171
516.081	0.03750663
516.287	0.03769449
516.493	0.03783434
516.699	0.03795393
516.905	0.03810381
517.111	0.03829327
517.316	0.03846528
517.522	0.0386047
517.728	0.03877789
517.934	0.03890171
518.139	0.03913264
518.345	0.03932311
518.551	0.03954569
518.757	0.03968939
518.962	0.03987449
519.168	0.04003982
519.374	0.04024847
519.579	0.04039379
519.785	0.04058226
519.991	0.04070968
520.196	0.04088272
520.402	0.04107817
520.607	0.04127761
520.813	0.04144905
521.018	0.0416001
521.224	0.04171767
521.429	0.04194005
521.635	0.04216275
521.84	0.042308
522.046	0.0424655
522.251	0.04266149
522.457	0.04283553
522.662	0.0430192
522.868	0.04316559
523.073	0.04332889
523.279	0.0434957
523.484	0.04366054
523.689	0.04381366
523.895	0.04404953
524.1	0.04431356
524.305	0.04452728
524.511	0.04475622
524.716	0.04500482
524.921	0.04522216
525.126	0.04542823
525.332	0.0456108
525.537	0.04578888
525.742	0.04600664
525.947	0.04618913
526.153	0.04640616
526.358	0.04668108
526.563	0.04696856
526.768	0.04713387
526.973	0.04731023
527.178	0.04750624
527.383	0.04772288
527.588	0.04787719
527.794	0.04801976
527.999	0.04818888
528.204	0.04843671
528.409	0.04864955
528.614	0.04889072
528.819	0.04908599
529.024	0.04935125
529.229	0.0495897
529.434	0.04981367
529.639	0.0500706
529.843	0.05028701
530.048	0.05043723
530.253	0.05063748
530.458	0.05085337
530.663	0.05102395
530.868	0.05116251
531.073	0.0513705
531.278	0.05161323
531.482	0.05188939
531.687	0.05215732
531.892	0.05235295
532.097	0.05260934
532.302	0.05287916
532.506	0.0530917
532.711	0.05330032
532.916	0.05352975
533.12	0.0537606
533.325	0.05397039
533.53	0.0542087
533.734	0.05449788
533.939	0.05476134
534.144	0.05503732
534.348	0.05524089
534.553	0.05545741
534.757	0.05569478
534.962	0.05591735
535.167	0.05612754
535.371	0.0563146
535.576	0.05653504
535.78	0.05680406
535.985	0.05705129
536.189	0.05732225
536.394	0.05756132
536.598	0.05781841
536.803	0.0580753
537.007	0.05832054
537.211	0.05854074
537.416	0.05869864
537.62	0.05891833
537.825	0.05910491
538.029	0.05936832
538.233	0.05961346
538.438	0.05982622
538.642	0.06006857
538.846	0.06040504
539.05	0.06062297
539.255	0.06088797
539.459	0.06112234
539.663	0.06138224
539.867	0.06166091
540.072	0.06191934
540.276	0.06217045
540.48	0.06246734
540.684	0.06276146
540.888	0.06304748
541.092	0.0633301
541.297	0.06359052
541.501	0.06387856
541.705	0.0640745
541.909	0.06434865
542.113	0.06463024
542.317	0.06487772
542.521	0.06510337
542.725	0.06530906
542.929	0.06553374
543.133	0.06578701
543.337	0.06605009
543.541	0.0662888
543.745	0.06648338
543.949	0.06679178
544.153	0.06708052
544.357	0.06734561
544.56	0.06765322
544.764	0.06790428
544.968	0.06813758
545.172	0.06841089
545.376	0.06864237
545.58	0.0689641
545.783	0.06924744
545.987	0.06953462
546.191	0.06981174
546.395	0.07016783
546.598	0.07051474
546.802	0.0708176
547.006	0.07110377
547.21	0.0713478
547.413	0.07160679
547.617	0.0718786
547.821	0.07207415
548.024	0.07229734
548.228	0.07248496
548.431	0.07267376
548.635	0.07294761
548.839	0.07320951
549.042	0.07352009
549.246	0.07384206
549.449	0.07412264
549.653	0.07446132
549.856	0.07477378
550.06	0.07508974
550.263	0.07539015
550.467	0.07562228
550.67	0.07590957
550.874	0.07621089
551.077	0.07651199
551.28	0.07684418
551.484	0.07706928
551.687	0.07730279
551.891	0.07758777
552.094	0.0778223
552.297	0.07807608
552.501	0.07839496
552.704	0.07861306
552.907	0.07895225
553.11	0.07931167
553.314	0.07968334
553.517	0.08001696
553.72	0.08030292
553.923	0.08056267
554.127	0.08085799
554.33	0.08107165
554.533	0.08132005
554.736	0.08153335
554.939	0.08177367
555.142	0.0820529
555.345	0.08232584
555.549	0.08257685
555.752	0.08289803
555.955	0.08318156
556.158	0.08346026
556.361	0.08373257
556.564	0.08400356
556.767	0.08430409
556.97	0.08465482
557.173	0.0849833
557.376	0.0853023
557.579	0.08558567
557.782	0.08588486
557.984	0.08615042
558.187	0.08640702
558.39	0.08664672
558.593	0.08693927
558.796	0.08719992
558.999	0.08741307
559.202	0.08769762
559.404	0.08803329
559.607	0.08832047
559.81	0.08868756
560.013	0.0889536
560.216	0.08924542
560.418	0.08959884
560.621	0.08992889
560.824	0.09019609
561.026	0.09048825
561.229	0.09070119
561.432	0.09096435
561.634	0.0912319
561.837	0.09149369
562.04	0.09172749
562.242	0.09204251
562.445	0.09229062
562.647	0.09258898
562.85	0.09284832
563.053	0.09317909
563.255	0.09355208
563.458	0.09390068
563.66	0.09420701
563.863	0.09456971
564.065	0.09485865
564.268	0.09515556
564.47	0.09545149
564.672	0.09562866
564.875	0.09584595
565.077	0.09609963
565.28	0.09634734
565.482	0.09661173
565.684	0.09687125
565.887	0.09711028
566.089	0.09747679
566.291	0.09780295
566.494	0.09808769
566.696	0.09842444
566.898	0.09874938
567.1	0.0990701
567.303	0.09934961
567.505	0.09957591
567.707	0.09978168
567.909	0.1000458
568.111	0.10025053
568.314	0.10053386
568.516	0.10081492
568.718	0.1011228
568.92	0.1014843
569.122	0.1018307
569.324	0.10215167
569.526	0.10242403
569.728	0.10273083
569.93	0.10305202
570.132	0.10333919
570.334	0.10358922
570.536	0.10388729
570.738	0.10412352
570.94	0.10439194
571.142	0.10464765
571.344	0.1048599
571.546	0.1050901
571.748	0.10537792
571.95	0.10564328
572.152	0.10594702
572.354	0.10627504
572.555	0.10655128
572.757	0.10684723
572.959	0.10714998
573.161	0.10739034
573.363	0.10757829
573.564	0.10787953
573.766	0.10810028
573.968	0.10837589
574.17	0.10864955
574.371	0.1089153
574.573	0.10916609
574.775	0.10945249
574.976	0.10964001
575.178	0.10988977
575.38	0.11013199
575.581	0.11038754
575.783	0.11063312
575.985	0.11092982
576.186	0.11121965
576.388	0.11152075
576.589	0.1118307
576.791	0.11211391
576.992	0.11238767
577.194	0.11263756
577.395	0.11283829
577.597	0.11309959
577.798	0.11336508
578	0.11360791
578.201	0.11389992
578.402	0.114167
578.604	0.11442873
578.805	0.11472189
579.007	0.11501814
579.208	0.11530961
579.409	0.11549146
579.611	0.11571125
579.812	0.11598832
580.013	0.11624374
580.215	0.11647207
580.416	0.11671225
580.617	0.11695205
580.818	0.11726466
581.019	0.11742641
581.221	0.11758417
581.422	0.11782996
581.623	0.11810423
581.824	0.11829991
582.025	0.11848502
582.226	0.11869852
582.428	0.11903729
582.629	0.11930295
582.83	0.11954306
583.031	0.11973735
583.232	0.12002079
583.433	0.12029368
583.634	0.12052534
583.835	0.12072784
584.036	0.12098917
584.237	0.12124758
584.438	0.12150124
584.639	0.12168628
584.84	0.12191481
585.041	0.12213932
585.242	0.12238315
585.442	0.12256337
585.643	0.12279434
585.844	0.12298975
586.045	0.12322425
586.246	0.12341012
586.447	0.12366321
586.647	0.12390571
586.848	0.12414453
587.049	0.12432979
587.25	0.12459967
587.45	0.12480224
587.651	0.12501357
587.852	0.12520751
588.053	0.12540366
588.253	0.12564412
588.454	0.12582496
588.655	0.12597762
588.855	0.12618229
589.056	0.12636653
589.256	0.12662955
589.457	0.1268053
589.658	0.12701414
589.858	0.1272469
590.059	0.12750446
590.259	0.1277536
590.46	0.12797253
590.66	0.12815286
590.861	0.12830923
591.061	0.12843565
591.262	0.12861658
591.462	0.1287732
591.662	0.12895002
591.863	0.12914224
592.063	0.12928094
592.264	0.12954189
592.464	0.1297181
592.664	0.12988003
592.865	0.13014732
593.065	0.13029419
593.265	0.13049746
593.465	0.13066326
593.666	0.13080154
593.866	0.13097933
594.066	0.13121075
594.266	0.13130744
594.467	0.13146505
594.667	0.13161556
594.867	0.13187763
595.067	0.13205106
595.267	0.13222783
595.467	0.13234252
595.668	0.13249841
595.868	0.13266861
596.068	0.13279555
596.268	0.13282873
596.468	0.13295686
596.668	0.13309662
596.868	0.13324846
597.068	0.13339978
597.268	0.13358259
597.468	0.13374296
597.668	0.13393932
597.868	0.13410065
598.068	0.13424829
598.268	0.13439376
598.467	0.13456357
598.667	0.13466351
598.867	0.13476637
599.067	0.13492807
599.267	0.13505465
599.467	0.13519065
599.667	0.13529525
599.866	0.13540274
600.066	0.13555285
600.266	0.13568429
600.466	0.13582686
600.665	0.13594308
600.865	0.13607708
601.065	0.13620615
601.264	0.13631856
601.464	0.13641086
601.664	0.13661608
601.863	0.13671713
602.063	0.13681577
602.263	0.13688635
602.462	0.13703149
602.662	0.1371546
602.861	0.13733174
603.061	0.13739897
603.26	0.13747094
603.46	0.13760227
603.659	0.1377694
603.859	0.13784438
604.058	0.13794984
604.258	0.13806199
604.457	0.13822579
604.657	0.13826068
604.856	0.13828215
605.056	0.13836825
605.255	0.13843819
605.454	0.13850904
605.654	0.1384792
605.853	0.13846059
606.052	0.13855836
606.252	0.1387198
606.451	0.13883027
606.65	0.13896035
606.849	0.13899193
607.049	0.13911715
607.248	0.13922041
607.447	0.1393262
607.646	0.13939614
607.845	0.13946835
608.045	0.13949448
608.244	0.13965952
608.443	0.13971682
608.642	0.13983088
608.841	0.13986574
609.04	0.13983526
609.239	0.13986567
609.438	0.13989772
609.637	0.13993154
609.836	0.13996757
610.035	0.13994097
610.234	0.14006492
610.433	0.14015635
610.632	0.14017749
610.831	0.140307
611.03	0.14033944
611.229	0.14048927
611.428	0.14059719
611.627	0.14061971
611.826	0.14075758
612.025	0.14094218
612.224	0.14093419
612.422	0.14096817
612.621	0.14100802
612.82	0.14106352
613.019	0.14107339
613.218	0.14106341
613.416	0.14095207
613.615	0.14105283
613.814	0.14108371
614.012	0.14108068
614.211	0.14104792
614.41	0.14114305
614.608	0.14119752
614.807	0.14125984
615.006	0.14130338
615.204	0.14132026
615.403	0.14131241
615.602	0.14136712
615.8	0.14144206
615.999	0.14140419
616.197	0.14140815
616.396	0.14144591
616.594	0.14143426
616.793	0.14145739
616.991	0.14145335
617.19	0.14131978
617.388	0.1413823
617.586	0.14141783
617.785	0.14135161
617.983	0.14134565
618.182	0.14130743
618.38	0.14127181
618.578	0.14134195
618.777	0.14137252
618.975	0.14137391
619.173	0.14135022
619.372	0.14139404
619.57	0.14141589
619.768	0.14140207
619.966	0.14138904
620.165	0.14129553
620.363	0.14127869
620.561	0.14120358
620.759	0.14116369
620.957	0.14118148
621.155	0.14120921
621.354	0.14113179
621.552	0.14119154
621.75	0.14116973
621.948	0.14128548
622.146	0.14130078
622.344	0.14128133
622.542	0.14127365
622.74	0.14125577
622.938	0.14114556
623.136	0.14119975
623.334	0.14116052
623.532	0.14107658
623.73	0.14100399
623.928	0.1410332
624.126	0.14106681
624.324	0.14113165
624.522	0.14097874
624.719	0.14092848
624.917	0.14094934
625.115	0.1408975
625.313	0.14084065
625.511	0.1408003
625.708	0.14062241
625.906	0.14059941
626.104	0.14045803
626.302	0.14043848
626.499	0.14040352
626.697	0.14032123
626.895	0.14021436
627.093	0.14017809
627.29	0.14011574
627.488	0.14008282
627.686	0.13999575
627.883	0.13985311
628.081	0.13969296
628.278	0.13971413
628.476	0.13963769
628.673	0.13961884
628.871	0.1396051
629.068	0.13952506
629.266	0.13957044
629.463	0.13954999
629.661	0.13944706
629.858	0.13940493
630.056	0.13934376
630.253	0.13928748
630.451	0.13927928
630.648	0.13920657
630.845	0.13916143
631.043	0.13910862
631.24	0.13908805
631.438	0.13897821
631.635	0.13888557
631.832	0.13872936
632.029	0.13863134
632.227	0.13858721
632.424	0.13853073
632.621	0.13843287
632.818	0.13833396
633.016	0.1382934
633.213	0.1382303
633.41	0.13822439
633.607	0.13811586
633.804	0.13798753
634.001	0.13785989
634.199	0.13780877
634.396	0.13768499
634.593	0.13755411
634.79	0.13744886
634.987	0.13738128
635.184	0.13730169
635.381	0.13728444
635.578	0.1371781
635.775	0.137123
635.972	0.1371143
636.169	0.13697767
636.366	0.13683298
636.563	0.13671243
636.76	0.13651493
636.957	0.13640442
637.153	0.13619407
637.35	0.13606243
637.547	0.13594887
637.744	0.13585467
637.941	0.13575315
638.138	0.13572773
638.334	0.1355968
638.531	0.13555583
638.728	0.1354001
638.925	0.13530631
639.121	0.13519911
639.318	0.13506142
639.515	0.13490195
639.711	0.13484515
639.908	0.13468536
640.105	0.13461363
640.301	0.13448414
640.498	0.13434694
640.695	0.13429767
640.891	0.13413956
641.088	0.1339902
641.284	0.13389639
641.481	0.13376107
641.677	0.13364548
641.874	0.13353385
642.07	0.13341703
642.267	0.13340325
642.463	0.13328272
642.66	0.13319193
642.856	0.13300869
643.053	0.1328362
643.249	0.13272405
643.445	0.13253689
643.642	0.13240508
643.838	0.1322881
644.034	0.13214189
644.231	0.13200431
644.427	0.13190643
644.623	0.13177928
644.82	0.13173072
645.016	0.13156287
645.212	0.13141078
645.408	0.13131752
645.604	0.13131112
645.801	0.13118036
645.997	0.13104298
646.193	0.13082485
646.389	0.13070407
646.585	0.13062418
646.781	0.13050668
646.977	0.13036603
647.173	0.13025335
647.37	0.1300444
647.566	0.12992889
647.762	0.12975846
647.958	0.12960437
648.154	0.12940953
648.35	0.1292358
648.546	0.12909207
648.742	0.12906732
648.937	0.12887371
649.133	0.12877821
649.329	0.12869976
649.525	0.12862444
649.721	0.12846922
649.917	0.12838424
650.113	0.12819581
650.309	0.12814494
650.504	0.12793443
650.7	0.1276996
650.896	0.12753019
651.092	0.12739778
651.287	0.12722522
651.483	0.12712959
651.679	0.12691402
651.875	0.12683441
652.07	0.12671399
652.266	0.12655953
652.462	0.12642162
652.657	0.12625468
652.853	0.12603483
653.048	0.12592952
653.244	0.12571772
653.44	0.12549471
653.635	0.12525043
653.831	0.12509966
654.026	0.1249222
654.222	0.12478032
654.417	0.1246229
654.613	0.12454974
654.808	0.124455
655.004	0.12436346
655.199	0.12417487
655.394	0.12402768
655.59	0.12392463
655.785	0.1237535
655.98	0.1235639
656.176	0.12338302
656.371	0.12330466
656.566	0.1232069
656.762	0.12304101
656.957	0.12289871
657.152	0.12274266
657.348	0.12261618
657.543	0.12252413
657.738	0.12234771
657.933	0.12212817
658.128	0.12193868
658.324	0.12167911
658.519	0.12149559
658.714	0.12128084
658.909	0.12099251
659.104	0.12077079
659.299	0.12053349
659.494	0.1203467
659.689	0.1201921
659.884	0.12002468
660.079	0.11980676
660.274	0.11968887
660.469	0.1195225
660.664	0.11949659
660.859	0.11936737
661.054	0.11919685
661.249	0.11907671
661.444	0.11897828
661.639	0.11885726
661.834	0.11866101
662.029	0.11845437
662.224	0.11831191
662.418	0.11825998
662.613	0.1181053
662.808	0.11794056
663.003	0.11779249
663.198	0.11767686
663.392	0.11747813
663.587	0.11738018
663.782	0.11712693
663.977	0.11692833
664.171	0.11680879
664.366	0.11666052
664.561	0.11652761
664.755	0.11642808
664.95	0.11622752
665.144	0.11607774
665.339	0.1159378
665.534	0.11571833
665.728	0.11554414
665.923	0.11539104
666.117	0.1152258
666.312	0.11502358
666.506	0.11487662
666.701	0.11466006
666.895	0.11448945
667.09	0.11434427
667.284	0.11423478
667.479	0.11410826
667.673	0.11400363
667.867	0.11387069
668.062	0.11378991
668.256	0.11361892
668.45	0.11342989
668.645	0.11316227
668.839	0.11297809
669.033	0.11280241
669.228	0.11263788
669.422	0.11241859
669.616	0.11227912
669.81	0.11209611
670.004	0.11189648
670.199	0.11166995
670.393	0.11144387
670.587	0.11122393
670.781	0.11108377
670.975	0.11094782
671.169	0.11076628
671.363	0.11063001
671.558	0.11050846
671.752	0.1104433
671.946	0.11035986
672.14	0.11028792
672.334	0.11014181
672.528	0.11013251
672.722	0.11000647
672.916	0.10988914
673.11	0.1096676
673.304	0.10952202
673.497	0.10928882
673.691	0.10913615
673.885	0.10887689
674.079	0.10874762
674.273	0.10855038
674.467	0.10846309
674.661	0.10828737
674.854	0.10815798
675.048	0.1080468
675.242	0.10792524
675.436	0.10779399
675.629	0.10771506
675.823	0.10752365
676.017	0.10744426
676.211	0.1072895
676.404	0.10712222
676.598	0.10701324
676.792	0.10680151
676.985	0.106579
677.179	0.10643989
677.372	0.10622593
677.566	0.10613869
677.76	0.10596813
677.953	0.10575858
678.147	0.10567556
678.34	0.10557135
678.534	0.10536997
678.727	0.10528515
678.921	0.10514887
679.114	0.10499151
679.307	0.10487696
679.501	0.1047555
679.694	0.10461061
679.888	0.10446999
680.081	0.10427984
680.274	0.10407225
680.468	0.10400533
680.661	0.10388658
680.854	0.10374178
681.048	0.10362564
681.241	0.10354005
681.434	0.10339998
681.627	0.10329865
681.821	0.10309262
682.014	0.10296294
682.207	0.10277946
682.4	0.10257824
682.593	0.10244555
682.786	0.10224164
682.98	0.10205662
683.173	0.10196953
683.366	0.10177948
683.559	0.10160158
683.752	0.10152805
683.945	0.10142549
684.138	0.10144992
684.331	0.10136035
684.524	0.10127545
684.717	0.10118083
684.91	0.10117376
685.103	0.10101438
685.296	0.10092181
685.489	0.10073148
685.682	0.10059268
685.874	0.10038816
686.067	0.10020324
686.26	0.10001041
686.453	0.09989871
686.646	0.09970664
686.839	0.09957395
687.031	0.09941827
687.224	0.09929753
687.417	0.09923176
687.61	0.09913541
687.802	0.09902369
687.995	0.09893267
688.188	0.09880896
688.38	0.09877765
688.573	0.09875103
688.766	0.09863575
688.958	0.09852244
689.151	0.09837449
689.343	0.09826997
689.536	0.09815584
689.729	0.09795073
689.921	0.09775082
690.114	0.09760221
690.306	0.09745397
690.499	0.09736542
690.691	0.09723731
690.884	0.09712638
691.076	0.09708112
691.268	0.09695614
691.461	0.09685833
691.653	0.09677702
691.846	0.09666589
692.038	0.09653053
692.23	0.0964131
692.423	0.09628172
692.615	0.09617509
692.807	0.09605879
692.999	0.09593839
693.192	0.09578894
693.384	0.09569372
693.576	0.09554429
693.768	0.09543724
693.961	0.09537988
694.153	0.09530653
694.345	0.09520586
694.537	0.09512935
694.729	0.09499291
694.921	0.09493131
695.113	0.09484729
695.305	0.0947328
695.498	0.09456339
695.69	0.09443977
695.882	0.09433808
696.074	0.09427599
696.266	0.09413195
696.458	0.09399377
696.65	0.09387104
696.842	0.09381771
697.033	0.09370243
697.225	0.09354987
697.417	0.09348962
697.609	0.09342503
697.801	0.0933254
697.993	0.09323799
698.185	0.09315594
698.376	0.09311563
698.568	0.09302933
698.76	0.09289974
698.952	0.09279315
699.144	0.09268597
699.335	0.09256217
699.527	0.09243225
699.719	0.09231133
699.91	0.09226709
700.102	0.09213215
700.294	0.09206693
700.485	0.09200559
700.677	0.09192189
700.869	0.09184673
701.06	0.09178665
701.252	0.09173623
701.443	0.09167578
701.635	0.09154269
701.826	0.09141124
702.018	0.09131321
702.209	0.09122318
702.401	0.09102195
702.592	0.09085252
702.784	0.09074833
702.975	0.09069938
703.166	0.09068529
703.358	0.09057626
703.549	0.09048719
703.741	0.09051104
703.932	0.09049
704.123	0.09041688
704.315	0.09029734
704.506	0.09020004
704.697	0.09010404
704.888	0.09000305
705.08	0.08988602
705.271	0.08980402
705.462	0.08972366
705.653	0.08966255
705.844	0.08951557
706.035	0.08947864
706.227	0.08940689
706.418	0.08940014
706.609	0.08929164
706.8	0.08918455
706.991	0.08910457
707.182	0.08907344
707.373	0.08896641
707.564	0.08894029
707.755	0.08879518
707.946	0.08878209
708.137	0.08876989
708.328	0.08873136
708.519	0.08866031
708.71	0.08863281
708.901	0.08854968
709.092	0.08848276
709.283	0.08834304
709.473	0.08827428
709.664	0.08821874
709.855	0.08815582
710.046	0.08807203
710.237	0.08798618
710.427	0.08797926
710.618	0.08794767
710.809	0.08788619
711	0.08782625
711.19	0.08781758
711.381	0.08783222
711.572	0.0878434
711.762	0.08776835
711.953	0.08777497
712.144	0.08775086
712.334	0.08769879
712.525	0.08767065
712.715	0.08762116
712.906	0.08753754
713.097	0.08743936
713.287	0.08729586
713.478	0.08719091
713.668	0.08714793
713.859	0.08693929
714.049	0.08677955
714.239	0.08666652
714.43	0.08657624
714.62	0.08652625
714.811	0.08645169
715.001	0.08636117
715.191	0.08638297
715.382	0.08630644
715.572	0.08628332
715.762	0.08625689
715.953	0.08620809
716.143	0.08616378
716.333	0.0861321
716.523	0.08612781
716.714	0.08619748
716.904	0.08615138
717.094	0.0861806
717.284	0.08617385
717.474	0.08615276
717.664	0.08612743
717.855	0.08607262
718.045	0.08599325
718.235	0.08597293
718.425	0.0859154
718.615	0.08580597
718.805	0.08577687
718.995	0.08571997
719.185	0.08569844
719.375	0.08563012
719.565	0.08557662
719.755	0.08553541
719.945	0.08553438
720.135	0.08548431
720.325	0.08542717
720.515	0.08536853
720.704	0.08534092
720.894	0.0853491
721.084	0.08529134
721.274	0.085263
721.464	0.08520418
721.654	0.08515781
721.843	0.08514751
722.033	0.08519572
722.223	0.0851576
722.413	0.085233
722.602	0.08528655
722.792	0.08528019
722.982	0.08526357
723.171	0.08510823
723.361	0.08500618
723.55	0.08501587
723.74	0.08493766
723.93	0.0848493
724.119	0.08490193
724.309	0.08497896
724.498	0.0850817
724.688	0.08511346
724.877	0.08505051
725.067	0.08494641
725.256	0.08490513
725.446	0.08476884
725.635	0.08466141
725.825	0.08464278
726.014	0.08460367
726.203	0.08456499
726.393	0.08455883
726.582	0.0845315
726.771	0.08450134
726.961	0.08446497
727.15	0.08435506
727.339	0.08425311
727.529	0.08417355
727.718	0.08410618
727.907	0.08404818
728.096	0.08407611
728.286	0.08402472
728.475	0.08402035
728.664	0.08404098
728.853	0.08408693
729.042	0.08411707
729.231	0.0840782
729.42	0.0839783
729.609	0.08391302
729.799	0.08383455
729.988	0.08377638
730.177	0.08361205
730.366	0.08342742
730.555	0.08335566
730.744	0.08326848
730.933	0.08320244
731.122	0.08314914
731.31	0.08306845
731.499	0.08301017
731.688	0.08294674
731.877	0.08284959
732.066	0.08284528
732.255	0.08281759
732.444	0.0828438
732.632	0.08286124
732.821	0.08289413
733.01	0.08302215
733.199	0.08310729
733.388	0.08315382
733.576	0.08313599
733.765	0.08309973
733.954	0.08306249
734.142	0.083025
734.331	0.08295057
734.52	0.08291896
734.708	0.08289635
734.897	0.08287695
735.086	0.08281519
735.274	0.08279046
735.463	0.08280539
735.651	0.0827673
735.84	0.08271341
736.028	0.08261906
736.217	0.08257645
736.405	0.08252053
736.594	0.08244239
736.782	0.08237913
736.971	0.08235995
737.159	0.08236385
737.347	0.08238227
737.536	0.08238497
737.724	0.08233302
737.912	0.08227069
738.101	0.08222833
738.289	0.08216806
738.477	0.0821159
738.666	0.08206222
738.854	0.08202892
739.042	0.08210127
739.23	0.08216847
739.418	0.08213533
739.607	0.08213282
739.795	0.08208103
739.983	0.08205885
740.171	0.08199035
740.359	0.0818867
740.547	0.0818031
740.735	0.08179723
740.923	0.08180182
741.112	0.08184718
741.3	0.08178284
741.488	0.08179931
741.676	0.08178673
741.864	0.08177272
742.052	0.08173773
742.239	0.08168374
742.427	0.08162543
742.615	0.08163444
742.803	0.08163752
742.991	0.08166486
743.179	0.08165152
743.367	0.0816655
743.555	0.08171707
743.742	0.08173599
743.93	0.08173753
744.118	0.08170764
744.306	0.0816918
744.494	0.08173695
744.681	0.08168293
744.869	0.08158793
745.057	0.08149311
745.244	0.08142939
745.432	0.08140003
745.62	0.08135412
745.807	0.08127921
745.995	0.08128363
746.182	0.08129858
746.37	0.08129258
746.558	0.08124705
746.745	0.08114133
746.933	0.08109944
747.12	0.08107252
747.308	0.08105833
747.495	0.08102715
747.683	0.0810213
747.87	0.08105621
748.057	0.08116021
748.245	0.08118438
748.432	0.08118908
748.62	0.08112237
748.807	0.08109929
748.994	0.08105471
749.182	0.08098798
749.369	0.08091829
749.556	0.08089848
749.743	0.08083944
749.931	0.08085216
750.118	0.08084358
750.305	0.08082042
750.492	0.08080434
750.68	0.0807984
750.867	0.08074916
751.054	0.08074574
751.241	0.08067301
751.428	0.08058949
751.615	0.08055552
751.802	0.0805259
751.989	0.08050566
752.176	0.08050591
752.363	0.08048385
752.55	0.08051979
752.737	0.08058079
752.924	0.08062981
753.111	0.08067682
753.298	0.08065867
753.485	0.08063596
753.672	0.08058754
753.859	0.08058025
754.046	0.08051996
754.233	0.08048268
754.42	0.08046398
754.606	0.08044667
754.793	0.08040027
754.98	0.08039607
755.167	0.08033337
755.353	0.08027237
755.54	0.08015228
755.727	0.07993932
755.914	0.0797557
756.1	0.07967146
756.287	0.07958357
756.474	0.07955232
756.66	0.07956285
756.847	0.07960286
757.033	0.07972591
757.22	0.079832
757.407	0.07989604
757.593	0.07994938
757.78	0.07991333
757.966	0.07989468
758.153	0.07987629
758.339	0.0797907
758.526	0.07973152
758.712	0.07964905
758.898	0.07961096
759.085	0.07957663
759.271	0.07956126
759.458	0.07956685
759.644	0.07962732
759.83	0.07965607
760.017	0.07967292
760.203	0.0796743
760.389	0.07972967
760.576	0.07968755
760.762	0.07972892
760.948	0.07969171
761.134	0.07966536
761.32	0.07962228
761.507	0.07953391
761.693	0.07941644
761.879	0.07932774
762.065	0.07913056
762.251	0.07901087
762.437	0.07893877
762.623	0.07889436
762.809	0.07890828
762.995	0.07893285
763.181	0.07894154
763.367	0.07904814
763.553	0.07907478
763.739	0.07903404
763.925	0.07896473
764.111	0.07888069
764.297	0.07883181
764.483	0.07876495
764.669	0.07860639
764.855	0.07855439
765.041	0.07854139
765.227	0.07860224
765.412	0.0786396
765.598	0.07856521
765.784	0.07855389
765.97	0.07859909
766.156	0.07864422
766.341	0.07859346
766.527	0.07849499
766.713	0.07840544
766.898	0.0783658
767.084	0.0783211
767.27	0.07826728
767.455	0.07817866
767.641	0.07811163
767.827	0.07808941
768.012	0.07805385
768.198	0.07806068
768.383	0.07805559
768.569	0.07800886
768.754	0.07804401
768.94	0.0781043
769.125	0.07815793
769.311	0.07822795
769.496	0.07825651
769.682	0.07827612
769.867	0.07824945
770.052	0.07816029
770.238	0.07805886
770.423	0.07795746
770.608	0.07778615
770.794	0.0776753
770.979	0.07756251
771.164	0.07747891
771.35	0.07742506
771.535	0.07741782
771.72	0.07738037
771.905	0.07740278
772.09	0.0773618
772.276	0.07730306
772.461	0.07730887
772.646	0.07721114
772.831	0.07720379
773.016	0.07715825
773.201	0.07707906
773.386	0.07703369
773.571	0.07700089
773.756	0.07689071
773.941	0.07680326
774.126	0.07669457
774.311	0.07665204
774.496	0.07662006
774.681	0.07663457
774.866	0.07667511
775.051	0.07671229
775.236	0.07681313
775.421	0.07682377
775.606	0.07671408
775.791	0.07664816
775.976	0.07650509
776.16	0.07640729
776.345	0.07633819
776.53	0.07627619
776.715	0.07615914
776.899	0.07617219
777.084	0.076146
777.269	0.07618992
777.454	0.07622041
777.638	0.07620688
777.823	0.07613678
778.008	0.07611065
778.192	0.07603568
778.377	0.07596847
778.561	0.07587367
778.746	0.07577871
778.931	0.07573711
779.115	0.07568853
779.3	0.07566386
779.484	0.07561612
779.669	0.07556546
779.853	0.07551679
780.037	0.07542516
780.222	0.07531593
780.406	0.07521465
780.591	0.07512957
780.775	0.07506172
780.959	0.07501007
781.144	0.07490663
781.328	0.07478283
781.512	0.07470352
781.697	0.0746444
781.881	0.0745435
782.065	0.07449741
782.249	0.07440454
782.434	0.07438387
782.618	0.07438309
782.802	0.07440983
782.986	0.07445282
783.17	0.07450391
783.354	0.07450323
783.539	0.07449767
783.723	0.07444566
783.907	0.07442317
784.091	0.07427837
784.275	0.07410041
784.459	0.07386946
784.643	0.07367201
784.827	0.07354962
785.011	0.07351197
785.195	0.07338489
785.379	0.07338253
785.563	0.07332576
785.747	0.07332293
785.93	0.0733055
786.114	0.07326194
786.298	0.07318068
786.482	0.07310351
786.666	0.0730129
786.85	0.07303812
787.033	0.07306138
787.217	0.07301564
787.401	0.07302049
787.585	0.07301062
787.768	0.0731133
787.952	0.07312637
788.136	0.07311087
788.319	0.07310836
788.503	0.07309162
788.687	0.07303757
788.87	0.07294387
789.054	0.07276601
789.237	0.07260221
789.421	0.07246333
789.605	0.0723305
789.788	0.07224067
789.972	0.07222634
790.155	0.07216285
790.338	0.07212491
790.522	0.07209328
790.705	0.07208419
790.889	0.07204042
791.072	0.07201656
791.256	0.07190717
791.439	0.07186332
791.622	0.07178318
791.806	0.07181527
791.989	0.07174734
792.172	0.07169183
792.355	0.07153985
792.539	0.07145382
792.722	0.07129367
792.905	0.07122391
793.088	0.07096474
793.271	0.0707654
793.455	0.07059592
793.638	0.07056175
793.821	0.07042783
794.004	0.07035697
794.187	0.07027184
794.37	0.07021288
794.553	0.0701685
794.736	0.07015742
794.919	0.07010657
795.102	0.07016731
795.285	0.07023316
795.468	0.07022201
795.651	0.07022961
795.834	0.07024962
796.017	0.07014818
796.2	0.07006437
796.383	0.06989469
796.566	0.06978828
796.749	0.06977781
796.931	0.06972889
797.114	0.06957204
797.297	0.06954287
797.48	0.0694379
797.663	0.06937074
797.845	0.06919972
798.028	0.06902875
798.211	0.06894322
798.393	0.06895423
798.576	0.06885317
798.759	0.06885371
798.941	0.0688359
799.124	0.06883554
799.307	0.06878459
799.489	0.06871278
799.672	0.06861987
799.854	0.06854459
800.037	0.06841313
800.219	0.06830967
800.402	0.06818729
800.584	0.06802783
800.767	0.06789994
800.949	0.06780177
801.132	0.06774558
801.314	0.06767133
801.496	0.06757109
801.679	0.06747587
801.861	0.06742506
802.043	0.06733172
802.226	0.0672295
802.408	0.06709993
802.59	0.06699909
802.772	0.06685085
802.955	0.06672646
803.137	0.06654282
803.319	0.06645191
803.501	0.06635896
803.684	0.06629541
803.866	0.06623408
804.048	0.06621556
804.23	0.066225
804.412	0.06621635
804.594	0.06610783
804.776	0.06600293
804.958	0.06591954
805.14	0.06583347
805.322	0.06577715
805.504	0.06572124
805.686	0.06577658
805.868	0.06582916
806.05	0.06580282
806.232	0.06567616
806.414	0.06552581
806.596	0.06536889
806.778	0.06525656
806.96	0.06505121
807.141	0.06488002
807.323	0.06474935
807.505	0.06465536
807.687	0.06467841
807.869	0.06466676
808.05	0.06460887
808.232	0.06452826
808.414	0.0644353
808.595	0.06430665
808.777	0.064265
808.959	0.06415396
809.14	0.06409572
809.322	0.06396372
809.504	0.06384994
809.685	0.06378488
809.867	0.06377552
810.048	0.06370275
810.23	0.06355832
810.411	0.06336295
810.593	0.06324283
810.774	0.0632058
810.956	0.06313006
811.137	0.06306257
811.319	0.06296144
811.5	0.06296889
811.681	0.06292067
811.863	0.06283581
812.044	0.06270519
812.225	0.06264158
812.407	0.06245299
812.588	0.0623579
812.769	0.06221332
812.951	0.0621212
813.132	0.06207793
813.313	0.06205453
813.494	0.06205084
813.675	0.06206014
813.857	0.06202127
814.038	0.06198126
814.219	0.061921
814.4	0.06184464
814.581	0.06180014
814.762	0.06163031
814.943	0.06154851
815.124	0.06143169
815.305	0.06135552
815.486	0.06129374
815.667	0.06123113
815.848	0.06111778
816.029	0.06098083
816.21	0.06076859
816.391	0.06061102
816.572	0.06049297
816.753	0.06031029
816.934	0.06015896
817.115	0.05999316
817.295	0.05987931
817.476	0.05986403
817.657	0.05980811
817.838	0.05972482
818.019	0.05967039
818.199	0.05960866
818.38	0.05952961
818.561	0.05938351
818.741	0.05918755
818.922	0.05900288
819.103	0.0588376
819.283	0.05878527
819.464	0.05865278
819.645	0.05856006
819.825	0.05857785
820.006	0.05855195
820.186	0.05858365
820.367	0.05853267
820.547	0.05839288
820.728	0.05836648
820.908	0.05829113
821.089	0.05819892
821.269	0.05817678
821.45	0.05806146
821.63	0.05795462
821.81	0.05786753
821.991	0.05774692
822.171	0.05772089
822.351	0.05760752
822.532	0.05749291
822.712	0.0574213
822.892	0.05733526
823.072	0.05720273
823.253	0.05704578
823.433	0.05681976
823.613	0.05669917
823.793	0.05655442
823.973	0.05639167
824.154	0.05624985
824.334	0.05615446
824.514	0.05612466
824.694	0.05609328
824.874	0.05602255
825.054	0.0560056
825.234	0.05600435
825.414	0.05602938
825.594	0.05603601
825.774	0.05595183
825.954	0.05585215
826.134	0.05575712
826.314	0.05564104
826.494	0.05553023
826.674	0.05539263
826.854	0.05524453
827.033	0.05513556
827.213	0.05500863
827.393	0.05479317
827.573	0.05466052
827.753	0.05441099
827.932	0.05416411
828.112	0.05395346
828.292	0.0537082
828.472	0.05354735
828.651	0.05351715
828.831	0.0533277
829.011	0.05320746
829.19	0.05313192
829.37	0.05297818
829.549	0.05294382
829.729	0.05293842
829.909	0.05287222
830.088	0.05281685
830.268	0.05284119
830.447	0.05279442
830.627	0.05278252
830.806	0.05255926
830.986	0.05233455
831.165	0.05209414
831.344	0.05199671
831.524	0.05188061
831.703	0.05183174
831.883	0.05177406
832.062	0.05182662
832.241	0.0518001
832.421	0.05186782
832.6	0.05174716
832.779	0.05169425
832.958	0.05152744
833.138	0.05140148
833.317	0.05124489
833.496	0.05108985
833.675	0.05085793
833.854	0.05077879
834.034	0.05064232
834.213	0.05051864
834.392	0.05041306
834.571	0.05027879
834.75	0.05015216
834.929	0.05009424
835.108	0.04999143
835.287	0.04981004
835.466	0.04964456
835.645	0.04947075
835.824	0.04938552
836.003	0.04933712
836.182	0.04934282
836.361	0.0492686
836.54	0.04928044
836.719	0.04935164
836.897	0.04935303
837.076	0.04936141
837.255	0.04927905
837.434	0.04907515
837.613	0.04893171
837.791	0.04878025
837.97	0.04860027
838.149	0.04850507
838.328	0.04834604
838.506	0.04822572
838.685	0.04808106
838.864	0.04794716
839.042	0.0477944
839.221	0.04759355
839.4	0.04737793
839.578	0.04719954
839.757	0.04703503
839.935	0.04698826
840.114	0.04693192
840.292	0.04694172
840.471	0.04694874
840.649	0.04694617
840.828	0.04695013
841.006	0.04694972
841.185	0.04686739
841.363	0.04688508
841.541	0.04678654
841.72	0.04673756
841.898	0.04666373
842.076	0.0464325
842.255	0.04631004
842.433	0.04616209
842.611	0.04593368
842.789	0.04580617
842.968	0.04568086
843.146	0.04551246
843.324	0.04540597
843.502	0.04530619
843.68	0.04521417
843.859	0.04515904
844.037	0.04505028
844.215	0.04497238
844.393	0.04496664
844.571	0.04503254
844.749	0.04495694
844.927	0.04483046
845.105	0.04461475
845.283	0.04443085
845.461	0.0441911
845.639	0.04404641
845.817	0.04387929
845.995	0.04373665
846.173	0.04378405
846.351	0.04388941
846.529	0.04395795
846.706	0.04404543
846.884	0.04389758
847.062	0.04376562
847.24	0.04369205
847.418	0.0435313
847.595	0.04323044
847.773	0.04299024
847.951	0.04278779
848.129	0.04267454
848.306	0.04260124
848.484	0.04251221
848.662	0.04243932
848.839	0.04240176
849.017	0.04236827
849.194	0.04221593
849.372	0.04210679
849.549	0.04204884
849.727	0.04197136
849.905	0.04180009
850.082	0.04177953
850.26	0.04172913
850.437	0.04174593
850.614	0.04176124
850.792	0.04171213
850.969	0.04172901
851.147	0.04176054
851.324	0.04170548
851.501	0.04158699
851.679	0.04138175
851.856	0.04124867
852.033	0.04102119
852.211	0.04078261
852.388	0.04053224
852.565	0.04029399
852.742	0.04007183
852.92	0.0400326
853.097	0.03982212
853.274	0.03972482
853.451	0.03956363
853.628	0.03950228
853.805	0.0394279
853.982	0.03939041
854.159	0.03920074
854.336	0.03915291
854.514	0.03900079
854.691	0.03883894
854.868	0.03876636
855.045	0.03871148
855.221	0.03860442
855.398	0.03855423
855.575	0.03837673
855.752	0.03829874
855.929	0.03827591
856.106	0.03815773
856.283	0.03812345
856.46	0.03806003
856.637	0.03807989
856.813	0.03814839
856.99	0.03812087
857.167	0.03802039
857.344	0.03783571
857.52	0.03750398
857.697	0.03733438
857.874	0.03707883
858.05	0.03683606
858.227	0.03667142
858.404	0.03656857
858.58	0.03649972
858.757	0.03650225
858.933	0.03647935
859.11	0.03644794
859.287	0.03642617
859.463	0.03632653
859.64	0.03619459
859.816	0.03603924
859.993	0.03586995
860.169	0.03568971
860.345	0.0355755
860.522	0.03546336
860.698	0.03533906
860.875	0.03528957
861.051	0.03531576
861.227	0.03535872
861.404	0.0353362
861.58	0.03526961
861.756	0.03523858
861.932	0.03527729
862.109	0.03523767
862.285	0.03515285
862.461	0.03513654
862.637	0.03499933
862.813	0.03491552
862.99	0.03461648
863.166	0.03440596
863.342	0.03441437
863.518	0.03435521
863.694	0.03415274
863.87	0.03409923
864.046	0.03392313
864.222	0.03401158
864.398	0.03408315
864.574	0.03391177
864.75	0.03367939
864.926	0.03356673
865.102	0.03344735
865.278	0.03338776
865.454	0.03331141
865.63	0.03315697
865.805	0.03303036
865.981	0.0330743
866.157	0.03306274
866.333	0.03292804
866.509	0.03282863
866.684	0.03267987
866.86	0.03252717
867.036	0.03249222
867.212	0.03229041
867.387	0.03206431
867.563	0.03200207
867.739	0.03186144
867.914	0.03177804
868.09	0.03178883
868.265	0.03174903
868.441	0.03180933
868.617	0.03180619
868.792	0.03174873
868.968	0.03172737
869.143	0.03167293
869.319	0.03154169
869.494	0.03138644
869.67	0.03124019
869.845	0.03117693
870.02	0.03110873
870.196	0.03104455
870.371	0.0310024
870.546	0.03083743
870.722	0.03075507
870.897	0.03067248
871.072	0.03059626
871.248	0.03037459
871.423	0.03013198
871.598	0.02996278
871.773	0.02980009
871.949	0.02964229
872.124	0.02944728
872.299	0.02935288
872.474	0.02938861
872.649	0.02942012
872.824	0.02935572
872.999	0.02942875
873.174	0.02942748
873.349	0.02950817
873.524	0.02947505
873.699	0.02932731
873.874	0.02925159
874.049	0.02914864
874.224	0.02906091
874.399	0.02881599
874.574	0.02868895
874.749	0.02850781
874.924	0.02855492
875.099	0.0285272
875.274	0.0284849
875.449	0.02843462
875.623	0.02849672
875.798	0.02830711
875.973	0.02823062
876.148	0.02801215
876.322	0.02792416
876.497	0.02786977
876.672	0.02769716
876.846	0.02757634
877.021	0.02755119
877.196	0.02751659
877.37	0.02760712
877.545	0.02750434
877.72	0.02742039
877.894	0.02731577
878.069	0.02720312
878.243	0.02702115
878.418	0.02684323
878.592	0.02662529
878.767	0.02649008
878.941	0.02643418
879.116	0.0264741
879.29	0.02642251
879.464	0.02642841
879.639	0.02641168
879.813	0.02629502
879.987	0.02632011
880.162	0.02613374
880.336	0.02597927
880.51	0.02590263
880.685	0.02588472
880.859	0.02586995
881.033	0.02580661
881.207	0.02563408
881.381	0.02552976
881.556	0.02539368
881.73	0.02516908
881.904	0.02488759
882.078	0.02481617
882.252	0.02475877
882.426	0.02464012
882.6	0.02458163
882.774	0.02447163
882.948	0.02447186
883.122	0.02455745
883.296	0.02439404
883.47	0.02430388
883.644	0.02425641
883.818	0.02420865
883.992	0.02419771
884.166	0.02411731
884.34	0.02411935
884.514	0.02414415
884.687	0.02422733
884.861	0.02419083
885.035	0.02423205
885.209	0.02427596
885.382	0.02428687
885.556	0.02412115
885.73	0.02382904
885.904	0.02358294
886.077	0.02340841
886.251	0.02319539
886.425	0.02295758
886.598	0.0227449
886.772	0.02262207
886.945	0.02269741
887.119	0.02275136
887.292	0.02278891
887.466	0.02265133
887.64	0.02260706
887.813	0.02258658
887.986	0.02255315
888.16	0.02239045
888.333	0.02219897
888.507	0.02200448
888.68	0.02189407
888.854	0.02184939
889.027	0.02182117
889.2	0.02170264
889.374	0.0216683
889.547	0.02164437
889.72	0.02171736
889.893	0.02181436
890.067	0.02174245
890.24	0.021683
890.413	0.02165077
890.586	0.02160502
890.759	0.02148011
890.933	0.02140016
891.106	0.02132295
891.279	0.02129746
891.452	0.02121928
891.625	0.0211658
891.798	0.02108416
891.971	0.02101721
892.144	0.02084697
892.317	0.02074599
892.49	0.02080562
892.663	0.02076451
892.836	0.02058556
893.009	0.02048551
893.182	0.02037613
893.355	0.02026548
893.527	0.02014596
893.7	0.01989218
893.873	0.01973849
894.046	0.01972413
894.219	0.0195593
894.391	0.01947851
894.564	0.01945078
894.737	0.01930098
894.91	0.01916835
895.082	0.01895456
895.255	0.01879459
895.428	0.01882393
895.6	0.01886494
895.773	0.01886193
895.945	0.01890239
896.118	0.01893102
896.291	0.01909037
896.463	0.01913056
896.636	0.01907146
896.808	0.01893228
896.981	0.0187747
897.153	0.01862794
897.326	0.01856774
897.498	0.01846335
897.67	0.01840778
897.843	0.01840964
898.015	0.01844503
898.187	0.01845434
898.36	0.01851153
898.532	0.01840588
898.704	0.01836823
898.877	0.01833605
899.049	0.01827642
899.221	0.01814783
899.393	0.01807122
899.566	0.01791296
899.738	0.01790242
899.91	0.01789773
900.082	0.01789102
900.254	0.01770462
900.426	0.01762522
900.598	0.01754434
900.77	0.01756551
900.942	0.01754703
901.114	0.01741522
901.286	0.01721162
901.458	0.01709629
901.63	0.01689358
901.802	0.01678
901.974	0.01669501
902.146	0.01651491
902.318	0.01636602
902.49	0.0164365
902.662	0.01657435
902.834	0.01668362
903.005	0.01674636
903.177	0.01679619
903.349	0.01680474
903.521	0.01692588
903.693	0.01685255
903.864	0.01681359
904.036	0.01688264
904.208	0.01694169
904.379	0.01686924
904.551	0.01699941
904.723	0.01692282
904.894	0.01672152
905.066	0.01654425
905.237	0.01637773
905.409	0.0162244
905.58	0.01611929
905.752	0.01594725
905.923	0.0158589
906.095	0.01591044
906.266	0.01591071
906.438	0.01586937
906.609	0.0157649
906.78	0.01571962
906.952	0.01560881
907.123	0.01557106
907.295	0.01547619
907.466	0.01529707
907.637	0.01518675
907.808	0.0150776
907.98	0.01498567
908.151	0.01492952
908.322	0.01490616
908.493	0.01495876
908.665	0.01510328
908.836	0.01505499
909.007	0.01499578
909.178	0.01495392
909.349	0.0149131
909.52	0.01484546
909.691	0.0147427
909.862	0.01451833
910.033	0.01455454
910.204	0.01461009
910.375	0.0145116
910.546	0.01429187
910.717	0.0141309
910.888	0.01406302
911.059	0.01406039
911.23	0.0139135
911.401	0.01382761
911.572	0.01384356
911.742	0.0138711
911.913	0.01376457
912.084	0.0136915
912.255	0.01364582
912.426	0.01353686
912.596	0.01339905
912.767	0.01322832
912.938	0.01311155
913.108	0.01317705
913.279	0.01302571
913.45	0.01305081
913.62	0.0131091
913.791	0.01313438
913.962	0.01322785
914.132	0.01325068
914.303	0.01320741
914.473	0.01333574
914.644	0.0132883
914.814	0.01318204
914.985	0.01315157
915.155	0.0129266
915.326	0.01284589
915.496	0.01282553
915.666	0.01278446
915.837	0.01272613
916.007	0.0127939
916.177	0.01274442
916.348	0.0128163
916.518	0.01287437
916.688	0.01277284
916.858	0.01268948
917.029	0.0125108
917.199	0.01236115
917.369	0.01234397
917.539	0.01240396
917.709	0.01242611
917.88	0.01257411
918.05	0.01272255
918.22	0.01285053
918.39	0.01287656
918.56	0.01284788
918.73	0.01277531
918.9	0.01266188
919.07	0.01238754
919.24	0.01208269
919.41	0.01191101
919.58	0.01184425
919.75	0.01168588
919.92	0.01155835
920.09	0.01139243
920.26	0.01130442
920.429	0.01126585
920.599	0.01131847
920.769	0.01136416
920.939	0.01150488
921.109	0.01148976
921.278	0.01157467
921.448	0.01163503
921.618	0.01170858
921.787	0.01166892
921.957	0.01155144
922.127	0.01134172
922.296	0.01123234
922.466	0.01115927
922.636	0.01114296
922.805	0.01115646
922.975	0.01105994
923.144	0.01100878
923.314	0.01115625
923.483	0.01111388
923.653	0.01112869
923.822	0.01107402
923.992	0.0108335
924.161	0.01081061
924.331	0.01062262
924.5	0.01032548
924.669	0.01040512
924.839	0.01041922
925.008	0.01042029
925.177	0.01027712
925.347	0.01034499
925.516	0.01048552
925.685	0.01061043
925.854	0.01059451
926.023	0.01033687
926.193	0.01016113
926.362	0.01034278
926.531	0.0101455
926.7	0.01006263
926.869	0.01000566
927.038	0.00995461
927.207	0.01008412
927.376	0.01017307
927.545	0.01002644
927.715	0.01004621
927.884	0.01007026
928.052	0.01007069
928.221	0.01006146
928.39	0.00987162
928.559	0.00976206
928.728	0.00964983
928.897	0.00959067
929.066	0.00950502
929.235	0.00930929
929.404	0.00919092
929.572	0.00929056
929.741	0.00933672
929.91	0.00955337
930.079	0.009654
930.247	0.00959256
930.416	0.00985386
930.585	0.00981942
930.753	0.00968642
930.922	0.00959908
931.091	0.00962897
931.259	0.00943975
931.428	0.00947189
931.596	0.0090459
931.765	0.00902197
931.934	0.00927693
932.102	0.00923811
932.27	0.00902211
932.439	0.00896846
932.607	0.00888413
932.776	0.00921275
932.944	0.00906207
933.113	0.0089096
933.281	0.00901511
933.449	0.00900325
933.618	0.00903525
933.786	0.00891911
933.954	0.0086221
934.123	0.00873717
934.291	0.00857634
934.459	0.00829741
934.627	0.00822888
934.795	0.0082922
934.964	0.00818718
935.132	0.0084713
935.3	0.00864481
935.468	0.00883985
935.636	0.00899106
935.804	0.00913288
935.972	0.00904156
936.14	0.00917872
936.308	0.00909745
936.476	0.0089185
936.644	0.00890286
936.812	0.00895227
936.98	0.00923215
937.148	0.00949716
937.316	0.00996948
937.484	0.01002098
937.652	0.01004876
937.82	0.00981078
937.987	0.00986574
938.155	0.0097878
938.323	0.00954451
938.491	0.00930432
938.658	0.00947043
938.826	0.00947583
938.994	0.00992009
939.162	0.00983728
939.329	0.00935058
939.497	0.00959222
939.665	0.00933556
939.832	0.0093387
940	0.00947525
940.167	0.00930271
940.335	0.00976256
940.502	0.01041296
940.67	0.01071195
940.837	0.01139773
941.005	0.01156848
941.172	0.01164803
941.34	0.01204561
941.507	0.01217293
941.674	0.011883
941.842	0.01197025
942.009	0.01245699
942.177	0.01236095
942.344	0.01230148
942.511	0.01250597
942.678	0.01195286
942.846	0.0116082
943.013	0.01150679
943.18	0.01089532
943.347	0.01087234
943.514	0.01122058
943.682	0.01132171
943.849	0.01168175
944.016	0.01249013
944.183	0.01259265
944.35	0.0125509
944.517	0.01251671
944.684	0.01258583
944.851	0.0118958
945.018	0.01232002
945.185	0.01210153
945.352	0.011881
945.519	0.01267542
945.686	0.01254937
945.853	0.01284221
946.02	0.01295391
946.187	0.01191734
946.353	0.01230257
946.52	0.01241466
946.687	0.01187237
946.854	0.01254998
947.021	0.01167982
947.187	0.01228027
947.354	0.01390881
947.521	0.01336738
947.687	0.01340145
947.854	0.01328488
948.021	0.01277687
948.187	0.01322859
948.354	0.01243516
948.52	0.01183659
948.687	0.01166608
948.854	0.01171028
949.02	0.01159392
949.187	0.01071081
949.353	0.01060944
949.52	0.01095688
949.686	0.01067319
949.852	0.01095743
950.019	0.01085735
950.185	0.0111594
950.352	0.01154789
950.518	0.01107593
950.684	0.01078436
950.851	0.01058268
951.017	0.01049902
951.183	0.00987611
951.349	0.00894243
951.516	0.00847414
951.682	0.00852511
951.848	0.0079684
952.014	0.00734386
952.18	0.00674116
952.346	0.00704404
952.512	0.00795312
952.679	0.0081529
952.845	0.00821194
953.011	0.00889428
953.177	0.0095166
953.343	0.00949368
953.509	0.00954771
953.675	0.00882447
953.841	0.00860953
954.007	0.00905108
954.172	0.00907853
954.338	0.00894224
954.504	0.00885763
954.67	0.00877369
954.836	0.00853766
955.002	0.00861901
955.167	0.00784991
955.333	0.00714861
955.499	0.00748892
955.665	0.00803533
955.83	0.00769307
955.996	0.00772744
956.162	0.00778752
956.327	0.0080385
956.493	0.00811962
956.659	0.0071302
956.824	0.0064958
956.99	0.00642307
957.155	0.00625118
957.321	0.0066291
957.486	0.00699931
957.652	0.00710962
957.817	0.00739045
957.983	0.00729018
958.148	0.00770713
958.314	0.0078518
958.479	0.00735633
958.644	0.00720026
958.81	0.00748727
958.975	0.00715313
959.14	0.00725249
959.306	0.0072535
959.471	0.00754562
959.636	0.00711499
959.801	0.00686441
959.967	0.00618177
960.132	0.00648543
960.297	0.00649173
960.462	0.00639184
960.627	0.00598174
960.792	0.00649164
960.957	0.00639628
961.123	0.00672085
961.288	0.0069409
961.453	0.00713823
961.618	0.00655907
961.783	0.00652335
961.948	0.00617618
962.113	0.00623203
962.277	0.00645423
962.442	0.00627219
962.607	0.00584235
962.772	0.00613497
962.937	0.00632997
963.102	0.00671577
963.267	0.00691172
963.431	0.00660662
963.596	0.00650413
963.761	0.00697767
963.926	0.00704877
964.09	0.00687717
964.255	0.00669356
964.42	0.00630368
964.584	0.00643071
964.749	0.00617374
964.914	0.00607264
965.078	0.00564917
965.243	0.00561648
965.407	0.00553969
965.572	0.0053853
965.736	0.00527499
965.901	0.00538789
966.065	0.00539117
966.23	0.00573244
966.394	0.00548804
966.559	0.00539402
966.723	0.00533515
966.887	0.00514968
967.052	0.00482389
967.216	0.00417344
967.38	0.00381433
967.545	0.00392206
967.709	0.0036199
967.873	0.00342466
968.037	0.00334004
968.202	0.00349592
968.366	0.00380696
968.53	0.00420598
968.694	0.00423547
968.858	0.00474959
969.022	0.00494341
969.187	0.00493373
969.351	0.00564118
969.515	0.0056479
969.679	0.00587534
969.843	0.00583224
970.007	0.00587054
970.171	0.00616376
970.335	0.00622003
970.499	0.00552174
970.662	0.00536267
970.826	0.00488245
970.99	0.00491572
971.154	0.00472051
971.318	0.00484238
971.482	0.0050727
971.645	0.00514454
971.809	0.00518
971.973	0.00544652
972.137	0.00557995
972.3	0.00506282
972.464	0.00470937
972.628	0.00451452
972.791	0.00469712
972.955	0.00474165
973.119	0.00436372
973.282	0.00416211
973.446	0.0048009
973.609	0.00480063
973.773	0.00460076
973.936	0.00434895
974.1	0.00421794
974.263	0.00441192
974.427	0.00463863
974.59	0.00450181
974.754	0.00423205
974.917	0.00481311
975.08	0.00452668
975.244	0.00444175
975.407	0.00403777
975.57	0.00387155
975.734	0.00374062
975.897	0.00395293
976.06	0.00350762
976.223	0.00411387
976.387	0.00453725
976.55	0.0047164
976.713	0.00480962
976.876	0.00485193
977.039	0.00475799
977.202	0.00472403
977.365	0.00439023
977.528	0.0041244
977.692	0.00424943
977.855	0.0045849
978.018	0.0044763
978.181	0.00481269
978.344	0.00492244
978.506	0.0050834
978.669	0.00507109
978.832	0.00523942
978.995	0.00497166
979.158	0.00527642
979.321	0.0052927
979.484	0.00520823
979.646	0.00535254
979.809	0.00546064
979.972	0.00527653
980.135	0.00501197
980.297	0.00453024
980.46	0.00402963
980.623	0.00398658
980.786	0.00344731
980.948	0.00328564
981.111	0.00390286
981.273	0.00366202
981.436	0.00391211
981.599	0.00412859
981.761	0.00387156
981.924	0.00462183
982.086	0.00515472
982.249	0.00479818
982.411	0.00520679
982.573	0.0055514
982.736	0.00538807
982.898	0.00563694
983.061	0.0052053
983.223	0.00464581
983.385	0.00417539
983.548	0.00436617
983.71	0.00474274
983.872	0.00502775
984.034	0.00498934
984.197	0.00479796
984.359	0.00486952
984.521	0.00540782
984.683	0.00524008
984.845	0.00461633
985.008	0.00420911
985.17	0.00449609
985.332	0.00500175
985.494	0.00488659
985.656	0.00419973
985.818	0.00410701
985.98	0.00361354
986.142	0.0046787
986.304	0.00447087
986.466	0.00445306
986.628	0.00470213
986.79	0.00512324
986.952	0.00572087
987.113	0.00634518
987.275	0.00571742
987.437	0.00550817
987.599	0.00485914
987.761	0.00504385
987.922	0.00499791
988.084	0.00439471
988.246	0.00400971
988.408	0.00418931
988.569	0.00438076
988.731	0.00468611
988.893	0.0041783
989.054	0.00380283
989.216	0.00387097
989.377	0.00442106
989.539	0.00403282
989.701	0.00430411
989.862	0.00442258
990.024	0.00483928
990.185	0.00556454
990.347	0.00489768
990.508	0.00446654
990.669	0.00439609
990.831	0.00415963
990.992	0.00415949
991.154	0.00386558
991.315	0.0039568
991.476	0.00430173
991.638	0.00398229
991.799	0.00407995
991.96	0.00391525
992.121	0.00372922
992.283	0.00437194
992.444	0.00407205
992.605	0.00460691
992.766	0.00518836
992.927	0.00532354
993.088	0.0061893
993.249	0.00667668
993.41	0.00649248
993.572	0.00666077
993.733	0.00575848
993.894	0.00604964
994.055	0.00624673
994.216	0.00537323
994.376	0.00430275
994.537	0.00396313
994.698	0.00342177
994.859	0.0037574
995.02	0.00337574
995.181	0.00317257
995.342	0.00332768
995.503	0.00378523
995.663	0.00346783
995.824	0.00391394
995.985	0.00462909
996.146	0.00439133
996.306	0.00474617
996.467	0.00504402
996.628	0.00560831
996.788	0.0061184
996.949	0.00547791
997.11	0.00564864
997.27	0.0051432
997.431	0.00503921
997.591	0.00421674
997.752	0.00418284
997.912	0.00349097
998.073	0.0037859
998.233	0.00298776
998.394	0.00368517
998.554	0.00364103
998.714	0.00420201
998.875	0.00441123
999.035	0.00447049
999.196	0.00490081
999.356	0.00528489
999.516	0.00454507
999.676	0.00453115
999.837	0.00448587
999.997	0.00395719
1000.157	0.00548386
1000.317	0.00509564
1000.477	0.00524886
1000.638	0.00551939
1000.798	0.00497591
1000.958	0.00520089
1001.118	0.00619018
1001.278	0.00493664
1001.438	0.00391934
1001.598	0.00280276
1001.758	0.00340617
1001.918	0.00456786
1002.078	0.00471304
1002.238	0.00465858
1002.398	0.00541886
1002.558	0.00700761
1002.718	0.00797331
1002.878	0.00703974
1003.037	0.00584197
1003.197	0.0062749
1003.357	0.00551752
1003.517	0.00456004
1003.677	0.00446625
1003.836	0.00466177
1003.996	0.0053691
1004.156	0.00619689
1004.315	0.0051129
1004.475	0.00525473
1004.635	0.00635165
1004.794	0.00533127
1004.954	0.0047616
1005.114	0.00518765
1005.273	0.00531277
1005.433	0.00607437
1005.592	0.00534769
1005.752	0.00531305
1005.911	0.00503252
1006.071	0.00540626
1006.23	0.00556826
1006.389	0.00574461
1006.549	0.00626311
1006.708	0.00682748
1006.868	0.00541462
1007.027	0.0065763
1007.186	0.00636813
1007.345	0.00716149
1007.505	0.00675268
1007.664	0.00537364
1007.823	0.00576359
1007.982	0.00829271
1008.142	0.00828164
1008.301	0.00878805
1008.46	0.00709705
1008.619	0.00670192
1008.778	0.00756089
1008.937	0.00718054
1009.096	0.005546
1009.255	0.00524283
1009.414	0.00566945
1009.573	0.00578297
1009.732	0.00673168
1009.891	0.00575757
1010.05	0.00579115
1010.209	0.00675737
1010.368	0.00656622
1010.527	0.00539907
1010.686	0.00622438
1010.845	0.00559322
1011.003	0.00551228
1011.162	0.00706922
1011.321	0.00628591
1011.48	0.0083651
1011.638	0.00837913
1011.797	0.00818483
1011.956	0.0069885
1012.115	0.00960911
1012.273	0.01008866
1012.432	0.01049684
1012.59	0.01018589
1012.749	0.01090754
1012.908	0.01141016
1013.066	0.00968779
1013.225	0.00838625
1013.383	0.00687806
1013.542	0.00572239
1013.7	0.00448806
1013.859	0.00320979
1014.017	0.00214267
1014.175	0.00440253
1014.334	0.00298434
1014.492	0.00241428
1014.65	0.00542362
1014.809	0.00545954
1014.967	0.0079163
1015.125	0.00892798
1015.284	0.01038962
1015.442	0.01157681
1015.6	0.01107471
1015.758	0.00768069
1015.916	0.00717352
1016.075	0.00666083
1016.233	0.00564744
1016.391	0.00484114
1016.549	0.00527185
1016.707	0.00674994
1016.865	0.00767783
1017.023	0.00686746
1017.181	0.00521308
1017.339	0.00523215
1017.497	0.0039988
1017.655	0.00431073
1017.813	0.0032808
1017.971	0.0057214
1018.129	0.00722994
1018.286	0.00882256
1018.444	0.00984974
1018.602	0.01266973
1018.76	0.01228239
1018.918	0.011131
1019.075	0.00818969
1019.233	0.00886347
1019.391	0.00741918
1019.549	0.00753735
1019.706	0.00914082
1019.864	0.01009526
1020.022	0.0110136
1020.179	0.01012867
1020.337	0.00882921
1020.494	0.01164913
1020.652	0.01480033
1020.809	0.01138111
1020.967	0.01050715
1021.124	0.01181347
1021.282	0.01420762
1021.439	0.01646153
1021.597	0.01527011
1021.754	0.01053507
1021.911	0.01244134
1022.069	0.01142006
1022.226	0.01064565
1022.384	0.00843652
1022.541	0.00586878
1022.698	0.00575707
1022.855	0.00683819
1023.013	0.00603211
1023.17	0.008628
1023.327	0.00901697
1023.484	0.00863096
1023.641	0.00904605
1023.798	0.00839138
1023.956	0.00592376
1024.113	0.00742325
1024.27	0.0030266
1024.427	0.00099199
1024.584	0.001385
1024.741	0.00184215
1024.898	0.00033474
1025.055	0.00283611
1025.212	0.00150047
1025.369	0.00348258
1025.525	0.0053125
1025.682	0.00756797
1025.839	0.00886244
1025.996	0.01186657
1026.153	0.00997356
1026.31	0.0066502
1026.466	0.01042067
1026.623	0.01196006
1026.78	0.0155916
1026.937	0.01239923
1027.093	0.01362136
1027.25	0.01552036
1027.407	0.01936065
1027.563	0.01120307
1027.72	0.00952898
1027.876	0.01016984
1028.033	0.01744728
1028.19	0.01789396
1028.346	0.01697409
1028.503	0.0207195
1028.659	0.02491667
1028.816	0.02450299
1028.972	0.02451025
1029.128	0.02301168
1029.285	0.02353995
1029.441	0.02075189
1029.598	0.01776775
1029.754	0.02312018
1029.91	0.02557951
1030.067	0.02152926
1030.223	0.01633977
1030.379	0.01770567
1030.535	0.02041021
1030.691	0.02395029
1030.848	0.02008328
1031.004	0.01785657
1031.16	0.02376524
1031.316	0.0254897
1031.472	0.0247292
1031.628	0.02594191
1031.784	0.02634303
1031.94	0.02961987
1032.096	0.03191135
1032.252	0.02731916
1032.408	0.03053543
1032.564	0.02319653
1032.72	0.02173916
1032.876	0.01868862
1033.032	0.01566708
1033.188	0.01628962
1033.344	0.01701654
1033.5	0.01708382
1033.655	0.02121398
1033.811	0.02614984
1033.967	0.02566384
