Data from 0_1_mm_pl_10pc_Absorbance__0__17-48-07-173.txt Node

Date: Wed Mar 01 17:48:07 CET 2023
User: Ange
Spectrometer: FLMT08341
Trigger mode: 0
Integration Time (sec): 1.000000E-2
Scans to average: 400
Electric dark correction enabled: true
Nonlinearity correction enabled: false
Boxcar width: 3
XAxis mode: Wavelengths
Number of Pixels in Spectrum: 3648
>>>>>Begin Spectral Data<<<<<
345.271	0.02748782
345.487	0.01993108
345.704	0.02077589
345.921	0.02064238
346.137	0.01993519
346.354	0.03009639
346.571	0.02649166
346.787	-0.04803323
347.004	0.03238229
347.22	-0.01258449
347.437	-0.01875239
347.653	-0.14865929
347.87	-0.05808722
348.086	-0.13636542
348.303	0.19748287
348.519	0.07723339
348.736	0.06568334
348.952	0.07223034
349.169	0.07213691
349.385	0.0735396
349.601	0.07554893
349.818	0.07654251
350.034	0.07433235
350.251	0.07608326
350.467	0.07588907
350.683	0.07451217
350.9	0.07725397
351.116	0.07627969
351.332	0.07588664
351.549	0.0806993
351.765	0.08279675
351.981	0.08455449
352.197	0.08707481
352.414	0.08903356
352.63	0.09169594
352.846	0.09544559
353.062	0.09222387
353.278	0.090036
353.495	0.09277453
353.711	0.0937637
353.927	0.09292708
354.143	0.09110569
354.359	0.08959331
354.575	0.09104303
354.792	0.09550825
355.008	0.0935822
355.224	0.09365458
355.44	0.09453975
355.656	0.09544743
355.872	0.09708295
356.088	0.10062801
356.304	0.09798219
356.52	0.10055651
356.736	0.10136743
356.952	0.1021523
357.168	0.10261034
357.384	0.10346069
357.6	0.1019567
357.816	0.10447478
358.032	0.10434234
358.248	0.10743163
358.464	0.107458
358.679	0.10950334
358.895	0.11061828
359.111	0.11110022
359.327	0.1108348
359.543	0.11177948
359.759	0.11236218
359.974	0.11303993
360.19	0.1131309
360.406	0.11357617
360.622	0.1141082
360.838	0.11375411
361.053	0.1135068
361.269	0.1143324
361.485	0.1159299
361.701	0.11685997
361.916	0.1147994
362.132	0.11432299
362.348	0.1155586
362.563	0.11523368
362.779	0.11294608
362.995	0.11304958
363.21	0.1145974
363.426	0.11678443
363.641	0.11767841
363.857	0.11936622
364.073	0.1199292
364.288	0.12192318
364.504	0.12286359
364.719	0.12317452
364.935	0.12252595
365.15	0.12396881
365.366	0.12387841
365.581	0.12607116
365.797	0.12822176
366.012	0.12814427
366.228	0.12703837
366.443	0.12930772
366.658	0.13046164
366.874	0.12983634
367.089	0.13045487
367.305	0.12933946
367.52	0.12982111
367.735	0.13133249
367.951	0.13113536
368.166	0.13026061
368.381	0.13252692
368.597	0.13189885
368.812	0.13255375
369.027	0.13320879
369.243	0.13311415
369.458	0.13589282
369.673	0.13729165
369.888	0.1375658
370.104	0.13839527
370.319	0.13900038
370.534	0.13898739
370.749	0.13954222
370.964	0.13832461
371.179	0.13831044
371.395	0.13818098
371.61	0.13908682
371.825	0.1389623
372.04	0.14029811
372.255	0.14057509
372.47	0.14111237
372.685	0.14189331
372.9	0.14233644
373.115	0.14126071
373.33	0.14221266
373.545	0.14271675
373.76	0.14390352
373.975	0.14321363
374.19	0.14230398
374.405	0.14343557
374.62	0.14527572
374.835	0.1464581
375.05	0.14678984
375.265	0.14673291
375.48	0.14781601
375.695	0.15015789
375.91	0.14924755
376.125	0.14970471
376.339	0.14887761
376.554	0.14909906
376.769	0.1499538
376.984	0.15054688
377.199	0.15166275
377.414	0.15293211
377.628	0.15369138
377.843	0.1557554
378.058	0.15603181
378.273	0.15723837
378.487	0.15762723
378.702	0.15788454
378.917	0.15825125
379.131	0.15854739
379.346	0.15738274
379.561	0.1573311
379.775	0.15741261
379.99	0.15719345
380.205	0.15669487
380.419	0.15623973
380.634	0.15508063
380.848	0.15669719
381.063	0.15800348
381.278	0.15976728
381.492	0.15982351
381.707	0.16075925
381.921	0.16107168
382.136	0.16353484
382.35	0.16277013
382.565	0.16260658
382.779	0.16227726
382.994	0.16383576
383.208	0.16394293
383.422	0.16603028
383.637	0.16541924
383.851	0.16689305
384.066	0.16803056
384.28	0.16834862
384.494	0.16904195
384.709	0.16993252
384.923	0.1704395
385.137	0.17031126
385.352	0.17034298
385.566	0.17070437
385.78	0.17135737
385.995	0.17112287
386.209	0.171108
386.423	0.1718584
386.637	0.17327049
386.852	0.17342029
387.066	0.17390449
387.28	0.17345617
387.494	0.17403431
387.708	0.17462554
387.923	0.17436103
388.137	0.17528767
388.351	0.17555093
388.565	0.17660537
388.779	0.17758343
388.993	0.17911773
389.207	0.17999015
389.421	0.18029419
389.635	0.17999924
389.85	0.18066059
390.064	0.18042184
390.278	0.18052511
390.492	0.18055366
390.706	0.18085819
390.92	0.18118916
391.134	0.18203838
391.348	0.18344011
391.561	0.18455262
391.775	0.18497511
391.989	0.18489354
392.203	0.18535018
392.417	0.18615423
392.631	0.18726003
392.845	0.18666279
393.059	0.18674594
393.273	0.18678418
393.486	0.18662523
393.7	0.18617976
393.914	0.18669116
394.128	0.18653658
394.342	0.18661898
394.555	0.18636044
394.769	0.18710726
394.983	0.18845903
395.197	0.18895393
395.41	0.18892021
395.624	0.18885864
395.838	0.18958324
396.051	0.19099552
396.265	0.19112739
396.479	0.19144721
396.692	0.19238026
396.906	0.19242784
397.12	0.19262194
397.333	0.19330461
397.547	0.19322558
397.76	0.19428352
397.974	0.19418248
398.187	0.19417127
398.401	0.19512259
398.614	0.19541568
398.828	0.1956851
399.041	0.19542328
399.255	0.19551972
399.468	0.1959424
399.682	0.19624342
399.895	0.19618955
400.109	0.19659683
400.322	0.19666939
400.536	0.19631878
400.749	0.19610206
400.962	0.19617097
401.176	0.19637971
401.389	0.19639277
401.602	0.19574024
401.816	0.19578681
402.029	0.19653974
402.242	0.19679172
402.456	0.19708884
402.669	0.19652258
402.882	0.19593207
403.095	0.19698184
403.309	0.1972796
403.522	0.19794879
403.735	0.19782298
403.948	0.1978985
404.161	0.19945847
404.375	0.20027966
404.588	0.200269
404.801	0.20001925
405.014	0.19916969
405.227	0.19974804
405.44	0.20004316
405.653	0.19989472
405.866	0.19940697
406.079	0.19970829
406.293	0.19999663
406.506	0.20019292
406.719	0.20021801
406.932	0.20013339
407.145	0.19939688
407.358	0.2001283
407.571	0.19958673
407.784	0.19982186
407.996	0.19994147
408.209	0.19946328
408.422	0.19870136
408.635	0.1989604
408.848	0.19897027
409.061	0.19854426
409.274	0.19805283
409.487	0.19795956
409.7	0.19796712
409.912	0.19836578
410.125	0.19819454
410.338	0.19770663
410.551	0.1975278
410.764	0.1975935
410.976	0.19721999
411.189	0.19697962
411.402	0.19639986
411.615	0.19631594
411.827	0.19653409
412.04	0.19656829
412.253	0.19600956
412.465	0.19564868
412.678	0.19516343
412.891	0.19536356
413.103	0.19461823
413.316	0.19398951
413.529	0.19405591
413.741	0.19426737
413.954	0.1944456
414.166	0.19447327
414.379	0.19433523
414.591	0.19468708
414.804	0.1944667
415.016	0.19395707
415.229	0.19346803
415.441	0.19286405
415.654	0.1929676
415.866	0.19287519
416.079	0.19275333
416.291	0.19219178
416.504	0.19265299
416.716	0.19251163
416.928	0.19240961
417.141	0.19167204
417.353	0.19123945
417.566	0.19037508
417.778	0.19037193
417.99	0.18927219
418.203	0.18857885
418.415	0.18843056
418.627	0.18804877
418.839	0.18750897
419.052	0.18755761
419.264	0.18727165
419.476	0.18709364
419.688	0.18691489
419.901	0.18672537
420.113	0.18608483
420.325	0.18546058
420.537	0.1847778
420.749	0.18430873
420.961	0.18397836
421.174	0.18376973
421.386	0.18314661
421.598	0.18285972
421.81	0.18236933
422.022	0.18208162
422.234	0.18163558
422.446	0.18090669
422.658	0.18017904
422.87	0.17952106
423.082	0.17892513
423.294	0.17857919
423.506	0.1779019
423.718	0.1775245
423.93	0.17704793
424.142	0.17651672
424.354	0.17600171
424.566	0.17561741
424.778	0.17518508
424.99	0.17438231
425.202	0.17346364
425.414	0.17299287
425.625	0.17259936
425.837	0.17199181
426.049	0.17169858
426.261	0.17096212
426.473	0.17053311
426.684	0.17008302
426.896	0.16968114
427.108	0.16908932
427.32	0.16869453
427.531	0.16758526
427.743	0.16711031
427.955	0.16686871
428.167	0.16602251
428.378	0.16514231
428.59	0.16457922
428.802	0.16384557
429.013	0.16334121
429.225	0.16270377
429.436	0.16178298
429.648	0.16142842
429.86	0.16099953
430.071	0.1602692
430.283	0.15946202
430.494	0.15873765
430.706	0.15785128
430.917	0.15717798
431.129	0.15646255
431.34	0.15581028
431.552	0.15524066
431.763	0.15463438
431.975	0.15432561
432.186	0.15372864
432.398	0.15318965
432.609	0.15224661
432.821	0.15144892
433.032	0.15059829
433.243	0.14985433
433.455	0.14908678
433.666	0.14839224
433.877	0.14765741
434.089	0.14699639
434.3	0.14634565
434.511	0.14541522
434.723	0.14464137
434.934	0.14398531
435.145	0.1431544
435.356	0.1425767
435.568	0.14225029
435.779	0.14162351
435.99	0.14101789
436.201	0.14049139
436.412	0.13973498
436.624	0.13945448
436.835	0.13889414
437.046	0.13807789
437.257	0.13736962
437.468	0.13678999
437.679	0.13610216
437.89	0.13548699
438.101	0.13476951
438.312	0.1339151
438.523	0.13331298
438.734	0.13258265
438.945	0.13187972
439.156	0.13100127
439.367	0.13036282
439.578	0.12981294
439.789	0.12890814
440	0.12835574
440.211	0.12750476
440.422	0.12681002
440.633	0.12621581
440.844	0.12526922
441.055	0.12419547
441.266	0.12373405
441.477	0.12270833
441.687	0.12195196
441.898	0.12124125
442.109	0.1206101
442.32	0.1199536
442.531	0.11927534
442.741	0.11829639
442.952	0.11761586
443.163	0.11700227
443.374	0.11619093
443.584	0.11533835
443.795	0.11452425
444.006	0.11380607
444.216	0.11312844
444.427	0.1124023
444.638	0.1115952
444.848	0.11083496
445.059	0.11006512
445.27	0.10914138
445.48	0.10818966
445.691	0.1073034
445.901	0.10646911
446.112	0.10576937
446.323	0.10485858
446.533	0.10397958
446.744	0.10325313
446.954	0.10249503
447.165	0.10189765
447.375	0.10116485
447.586	0.10046173
447.796	0.09974491
448.006	0.09903579
448.217	0.09837909
448.427	0.09775112
448.638	0.09683274
448.848	0.09607591
449.058	0.09530006
449.269	0.09479766
449.479	0.09419307
449.689	0.09348768
449.9	0.0927857
450.11	0.09199656
450.32	0.0912879
450.531	0.0904197
450.741	0.08950041
450.951	0.08882299
451.161	0.08819905
451.372	0.08745137
451.582	0.08708887
451.792	0.08642147
452.002	0.08577731
452.212	0.08515896
452.422	0.08441847
452.633	0.08367578
452.843	0.08316408
453.053	0.08240444
453.263	0.0817511
453.473	0.08116285
453.683	0.08072658
453.893	0.08001915
454.103	0.07948203
454.313	0.07885163
454.523	0.07819769
454.733	0.07756155
454.943	0.07694336
455.153	0.07626317
455.363	0.07562432
455.573	0.07491354
455.783	0.0742748
455.993	0.07364318
456.203	0.07305207
456.413	0.07246053
456.623	0.0718977
456.833	0.0714006
457.042	0.07082214
457.252	0.07023509
457.462	0.06972693
457.672	0.06925653
457.882	0.06878161
458.091	0.06818744
458.301	0.06748381
458.511	0.06690696
458.721	0.06638273
458.931	0.06583739
459.14	0.06530907
459.35	0.06475479
459.56	0.06416238
459.769	0.06378749
459.979	0.06334355
460.189	0.06287522
460.398	0.06241754
460.608	0.0618216
460.817	0.06135271
461.027	0.06089653
461.237	0.06043721
461.446	0.06001501
461.656	0.05957196
461.865	0.05900138
462.075	0.05858711
462.284	0.05812159
462.494	0.05776633
462.703	0.05731291
462.913	0.05673464
463.122	0.05620363
463.332	0.05575716
463.541	0.05528483
463.751	0.05477458
463.96	0.05429951
464.169	0.05378159
464.379	0.05345968
464.588	0.05308914
464.797	0.05273763
465.007	0.05238756
465.216	0.05209456
465.425	0.0516973
465.635	0.05133769
465.844	0.05095409
466.053	0.05061053
466.263	0.05025605
466.472	0.04986227
466.681	0.04952845
466.89	0.04902703
467.099	0.04884403
467.309	0.04843615
467.518	0.04794164
467.727	0.04748636
467.936	0.04711917
468.145	0.04673884
468.354	0.04653234
468.563	0.04607269
468.772	0.04571805
468.982	0.04548317
469.191	0.04515448
469.4	0.04485787
469.609	0.04447586
469.818	0.04411333
470.027	0.04386339
470.236	0.04357187
470.445	0.0432294
470.654	0.04289852
470.863	0.04252369
471.072	0.04213721
471.28	0.04179416
471.489	0.04153649
471.698	0.04121294
471.907	0.04097294
472.116	0.04078532
472.325	0.04056231
472.534	0.04043328
472.743	0.04019771
472.951	0.03973694
473.16	0.03951763
473.369	0.03921905
473.578	0.03890941
473.786	0.03867547
473.995	0.03838641
474.204	0.03811459
474.413	0.03792183
474.621	0.03775274
474.83	0.03758653
475.039	0.03738277
475.247	0.03713703
475.456	0.03697764
475.665	0.03683195
475.873	0.0366516
476.082	0.0363792
476.291	0.03625458
476.499	0.03613404
476.708	0.0359713
476.916	0.03578842
477.125	0.03563039
477.333	0.03557908
477.542	0.0354387
477.75	0.03524847
477.959	0.03511427
478.167	0.0349795
478.376	0.03475755
478.584	0.03455682
478.793	0.03426542
479.001	0.03408052
479.209	0.03384771
479.418	0.03364629
479.626	0.0334982
479.834	0.03336047
480.043	0.03327931
480.251	0.03317839
480.459	0.03299824
480.668	0.03289339
480.876	0.03271851
481.084	0.03264392
481.293	0.03260012
481.501	0.03247011
481.709	0.03237974
481.917	0.03235272
482.125	0.03225807
482.334	0.03222106
482.542	0.03209393
482.75	0.0319707
482.958	0.03185718
483.166	0.03172367
483.374	0.03163839
483.583	0.03157372
483.791	0.03153326
483.999	0.03134815
484.207	0.03131859
484.415	0.03131981
484.623	0.0312355
484.831	0.03119853
485.039	0.03111176
485.247	0.03099606
485.455	0.03096543
485.663	0.03078476
485.871	0.03065827
486.079	0.03066559
486.287	0.03050305
486.495	0.03039548
486.702	0.03027167
486.91	0.03026666
487.118	0.03030461
487.326	0.03024256
487.534	0.03018184
487.742	0.030172
487.95	0.03013118
488.157	0.03011238
488.365	0.03001427
488.573	0.02994944
488.781	0.02988105
488.988	0.0298805
489.196	0.02989124
489.404	0.02991293
489.612	0.02994878
489.819	0.03005897
490.027	0.03000382
490.235	0.0300569
490.442	0.03003383
490.65	0.02997016
490.857	0.02990527
491.065	0.02990653
491.273	0.02987215
491.48	0.02992845
491.688	0.02992273
491.895	0.0299146
492.103	0.03000932
492.31	0.03008374
492.518	0.03006536
492.725	0.03001694
492.933	0.03006729
493.14	0.03009994
493.348	0.0301108
493.555	0.03011433
493.763	0.03015612
493.97	0.03016031
494.177	0.03023506
494.385	0.03023151
494.592	0.03019195
494.8	0.03021531
495.007	0.03019531
495.214	0.03020126
495.422	0.03027679
495.629	0.03030194
495.836	0.03038008
496.043	0.030495
496.251	0.03058073
496.458	0.03067647
496.665	0.0307577
496.872	0.03083134
497.08	0.03087259
497.287	0.03086348
497.494	0.03085502
497.701	0.03088079
497.908	0.03089043
498.115	0.0309449
498.322	0.0309672
498.53	0.03102006
498.737	0.03114798
498.944	0.03126267
499.151	0.03134228
499.358	0.03142474
499.565	0.03146993
499.772	0.03157936
499.979	0.03168903
500.186	0.03176619
500.393	0.03181395
500.6	0.03192344
500.807	0.03207256
501.014	0.03219846
501.221	0.03228632
501.427	0.03240386
501.634	0.03240483
501.841	0.03253005
502.048	0.03262645
502.255	0.0326882
502.462	0.03271615
502.669	0.03277851
502.875	0.03289084
503.082	0.03303483
503.289	0.0331215
503.496	0.03316649
503.702	0.03323335
503.909	0.0333665
504.116	0.03346145
504.323	0.03349301
504.529	0.03357433
504.736	0.03366518
504.943	0.03380736
505.149	0.03387475
505.356	0.03398982
505.563	0.03409082
505.769	0.03421474
505.976	0.03434943
506.182	0.03448019
506.389	0.03456472
506.595	0.03469563
506.802	0.03476331
507.008	0.03487423
507.215	0.03500508
507.421	0.03511228
507.628	0.03522312
507.834	0.03532377
508.041	0.03545682
508.247	0.03562275
508.454	0.03577952
508.66	0.03591659
508.866	0.0360594
509.073	0.03619273
509.279	0.03633611
509.486	0.03643993
509.692	0.03662548
509.898	0.03675675
510.105	0.03686924
510.311	0.03703656
510.517	0.03713306
510.723	0.03731431
510.93	0.03748162
511.136	0.03761337
511.342	0.03775152
511.548	0.03792417
511.754	0.03803372
511.961	0.03826327
512.167	0.03840876
512.373	0.03860253
512.579	0.03870163
512.785	0.03887833
512.991	0.03896551
513.197	0.03913316
513.404	0.03922194
513.61	0.03935648
513.816	0.03944856
514.022	0.03961384
514.228	0.03974916
514.434	0.03994954
514.64	0.04006475
514.846	0.04022382
515.052	0.04039506
515.258	0.04055901
515.464	0.04072207
515.669	0.04084857
515.875	0.04103293
516.081	0.04123991
516.287	0.04144174
516.493	0.04157659
516.699	0.041748
516.905	0.04187744
517.111	0.04206271
517.316	0.0422162
517.522	0.04237432
517.728	0.04256548
517.934	0.04275866
518.139	0.04295484
518.345	0.04317113
518.551	0.04336946
518.757	0.0435035
518.962	0.04369906
519.168	0.04385462
519.374	0.04405397
519.579	0.0442605
519.785	0.04449487
519.991	0.04469067
520.196	0.04487936
520.402	0.04509016
520.607	0.04530627
520.813	0.0455072
521.018	0.04566192
521.224	0.04573964
521.429	0.04593634
521.635	0.04614561
521.84	0.04628183
522.046	0.04647935
522.251	0.04668199
522.457	0.04687209
522.662	0.04712623
522.868	0.04730374
523.073	0.04751065
523.279	0.04775368
523.484	0.0478899
523.689	0.04805938
523.895	0.0483219
524.1	0.04852841
524.305	0.04872935
524.511	0.0489447
524.716	0.04914533
524.921	0.04939654
525.126	0.04960391
525.332	0.04979278
525.537	0.05000373
525.742	0.05026021
525.947	0.05044595
526.153	0.05063401
526.358	0.050878
526.563	0.05115022
526.768	0.05132209
526.973	0.05153666
527.178	0.05176788
527.383	0.0519653
527.588	0.05217333
527.794	0.05232172
527.999	0.05247626
528.204	0.05277997
528.409	0.0529862
528.614	0.05321909
528.819	0.05349279
529.024	0.05373629
529.229	0.05400832
529.434	0.05427263
529.639	0.05447463
529.843	0.05470967
530.048	0.05489377
530.253	0.0551298
530.458	0.0553681
530.663	0.0555815
530.868	0.0557744
531.073	0.05602879
531.278	0.05629146
531.482	0.05656408
531.687	0.05683467
531.892	0.05709179
532.097	0.05735621
532.302	0.05760504
532.506	0.05781562
532.711	0.05801919
532.916	0.05824954
533.12	0.05847574
533.325	0.05870803
533.53	0.05896154
533.734	0.05924251
533.939	0.05952396
534.144	0.05984369
534.348	0.06007834
534.553	0.0603424
534.757	0.06057256
534.962	0.06081459
535.167	0.06105739
535.371	0.06126449
535.576	0.06149488
535.78	0.0617324
535.985	0.06190732
536.189	0.06216682
536.394	0.06238775
536.598	0.06263387
536.803	0.06287495
537.007	0.06306402
537.211	0.0633428
537.416	0.06361192
537.62	0.06384654
537.825	0.0640716
538.029	0.06434725
538.233	0.0646396
538.438	0.06493152
538.642	0.06514418
538.846	0.0654575
539.05	0.06572145
539.255	0.06599535
539.459	0.06621742
539.663	0.0664527
539.867	0.06673105
540.072	0.06704622
540.276	0.06726686
540.48	0.06754806
540.684	0.06783284
540.888	0.06815195
541.092	0.06846712
541.297	0.06870579
541.501	0.06896038
541.705	0.06922259
541.909	0.06949256
542.113	0.06980521
542.317	0.07004493
542.521	0.0702984
542.725	0.07056431
542.929	0.07081332
543.133	0.0711293
543.337	0.07144971
543.541	0.07170513
543.745	0.07197584
543.949	0.07226697
544.153	0.07256187
544.357	0.07286328
544.56	0.07313834
544.764	0.07337565
544.968	0.07362743
545.172	0.07389532
545.376	0.07415132
545.58	0.07443863
545.783	0.07474373
545.987	0.07506654
546.191	0.07535114
546.395	0.07567582
546.598	0.07598017
546.802	0.0763054
547.006	0.07661302
547.21	0.07683224
547.413	0.077047
547.617	0.07733553
547.821	0.07754502
548.024	0.07784676
548.228	0.07802795
548.431	0.07824553
548.635	0.07854419
548.839	0.07877134
549.042	0.07903426
549.246	0.07933315
549.449	0.07958822
549.653	0.07989524
549.856	0.08021895
550.06	0.08047215
550.263	0.080817
550.467	0.08110078
550.67	0.08142257
550.874	0.08172314
551.077	0.08201765
551.28	0.08236216
551.484	0.08268225
551.687	0.0829663
551.891	0.08329649
552.094	0.08357722
552.297	0.08386457
552.501	0.08419479
552.704	0.08441809
552.907	0.08472429
553.11	0.08504426
553.314	0.08535004
553.517	0.08560637
553.72	0.0858645
553.923	0.08613912
554.127	0.08641464
554.33	0.08664157
554.533	0.08691465
554.736	0.08710519
554.939	0.08742934
555.142	0.08772742
555.345	0.08801758
555.549	0.08832697
555.752	0.08865597
555.955	0.08892377
556.158	0.08927098
556.361	0.08958203
556.564	0.08989113
556.767	0.09017936
556.97	0.09044331
557.173	0.09073359
557.376	0.09105505
557.579	0.09130597
557.782	0.09157866
557.984	0.09180008
558.187	0.09210102
558.39	0.09237843
558.593	0.09266522
558.796	0.0929054
558.999	0.0932
559.202	0.09347726
559.404	0.09382635
559.607	0.09405835
559.81	0.09443032
560.013	0.0947411
560.216	0.09506297
560.418	0.09535671
560.621	0.09567864
560.824	0.09594216
561.026	0.09627956
561.229	0.09652981
561.432	0.09678784
561.634	0.09709653
561.837	0.09743127
562.04	0.09766623
562.242	0.09799951
562.445	0.09823497
562.647	0.09855391
562.85	0.09881246
563.053	0.09908788
563.255	0.09931948
563.458	0.09962247
563.66	0.09988185
563.863	0.10027434
564.065	0.10050819
564.268	0.10078458
564.47	0.10107072
564.672	0.10133197
564.875	0.10153889
565.077	0.10180979
565.28	0.10204651
565.482	0.10230802
565.684	0.10260599
565.887	0.10281414
566.089	0.10316173
566.291	0.10353212
566.494	0.10382901
566.696	0.10410135
566.898	0.1044184
567.1	0.10468884
567.303	0.10501128
567.505	0.10521923
567.707	0.10539542
567.909	0.10564071
568.111	0.10587935
568.314	0.10614933
568.516	0.10646553
568.718	0.10676813
568.92	0.10710102
569.122	0.10743648
569.324	0.10771299
569.526	0.10797923
569.728	0.10829119
569.93	0.10855118
570.132	0.10885169
570.334	0.10911732
570.536	0.10939816
570.738	0.10970925
570.94	0.10999112
571.142	0.11021801
571.344	0.11043352
571.546	0.11064236
571.748	0.11092082
571.95	0.1111612
572.152	0.11140893
572.354	0.1116784
572.555	0.11193081
572.757	0.11224667
572.959	0.11248913
573.161	0.11272352
573.363	0.11292308
573.564	0.1132107
573.766	0.11344727
573.968	0.11373446
574.17	0.1139649
574.371	0.11423664
574.573	0.11448724
574.775	0.11478746
574.976	0.114968
575.178	0.11521805
575.38	0.11544716
575.581	0.1156994
575.783	0.11594903
575.985	0.11619761
576.186	0.1164221
576.388	0.11668186
576.589	0.1169241
576.791	0.11717512
576.992	0.11741233
577.194	0.11767147
577.395	0.11787972
577.597	0.11816506
577.798	0.11844878
578	0.11866991
578.201	0.11896144
578.402	0.11919783
578.604	0.11942169
578.805	0.11971182
579.007	0.119946
579.208	0.12016823
579.409	0.12039202
579.611	0.12059265
579.812	0.12089643
580.013	0.12111956
580.215	0.12131231
580.416	0.12158406
580.617	0.12180626
580.818	0.12207156
581.019	0.122234
581.221	0.12238796
581.422	0.12263223
581.623	0.12288222
581.824	0.12304367
582.025	0.12324307
582.226	0.12345179
582.428	0.12377103
582.629	0.12398069
582.83	0.12419504
583.031	0.12441072
583.232	0.12465797
583.433	0.12489864
583.634	0.125097
583.835	0.12525997
584.036	0.12552714
584.237	0.12574398
584.438	0.12593139
584.639	0.12609637
584.84	0.12631428
585.041	0.12651245
585.242	0.12674347
585.442	0.12687931
585.643	0.12713413
585.844	0.12736245
586.045	0.12765985
586.246	0.12786944
586.447	0.12805097
586.647	0.12821237
586.848	0.12843156
587.049	0.12855214
587.25	0.12875964
587.45	0.12884604
587.651	0.12895069
587.852	0.12914851
588.053	0.12936506
588.253	0.12955786
588.454	0.129753
588.655	0.12992223
588.855	0.13009897
589.056	0.13030017
589.256	0.13052121
589.457	0.13066726
589.658	0.13085379
589.858	0.13098957
590.059	0.13118486
590.259	0.13139657
590.46	0.13154952
590.66	0.13168807
590.861	0.13186877
591.061	0.13198826
591.262	0.13218972
591.462	0.13230981
591.662	0.13244694
591.863	0.13263977
592.063	0.13281292
592.264	0.13300189
592.464	0.13315976
592.664	0.13334691
592.865	0.1335603
593.065	0.13369795
593.265	0.13389497
593.465	0.13398848
593.666	0.1341137
593.866	0.13424976
594.066	0.13441098
594.266	0.13445771
594.467	0.13463655
594.667	0.13474228
594.867	0.1349553
595.067	0.1350603
595.267	0.13521654
595.467	0.1352984
595.668	0.13547283
595.868	0.13559263
596.068	0.13571589
596.268	0.13578405
596.468	0.1359274
596.668	0.13601155
596.868	0.13609479
597.068	0.13619797
597.268	0.13634961
597.468	0.13640587
597.668	0.13656451
597.868	0.1366494
598.068	0.13682213
598.268	0.136938
598.467	0.13707941
598.667	0.13711054
598.867	0.13722162
599.067	0.13736863
599.267	0.13746639
599.467	0.13754952
599.667	0.13764155
599.866	0.13769179
600.066	0.13779537
600.266	0.13788604
600.466	0.13794768
600.665	0.13803218
600.865	0.13814539
601.065	0.13822299
601.264	0.13830288
601.464	0.13839216
601.664	0.13851274
601.863	0.13856532
602.063	0.13865883
602.263	0.13865446
602.462	0.13878448
602.662	0.13889589
602.861	0.13900649
603.061	0.13905746
603.26	0.13914435
603.46	0.13918939
603.659	0.1392945
603.859	0.1393057
604.058	0.13934745
604.258	0.13944397
604.457	0.13956628
604.657	0.1395685
604.856	0.13959444
605.056	0.13967262
605.255	0.13973313
605.454	0.13979806
605.654	0.13974229
605.853	0.13976573
606.052	0.13978572
606.252	0.13985492
606.451	0.13987595
606.65	0.13994438
606.849	0.13992179
607.049	0.14000615
607.248	0.14001248
607.447	0.14008125
607.646	0.14015824
607.845	0.14021502
608.045	0.14018574
608.244	0.1403041
608.443	0.14029602
608.642	0.14035346
608.841	0.14035107
609.04	0.14031062
609.239	0.14030664
609.438	0.1403055
609.637	0.14027093
609.836	0.14028951
610.035	0.14022858
610.234	0.14028585
610.433	0.14026195
610.632	0.14028001
610.831	0.14037315
611.03	0.14034046
611.229	0.14043493
611.428	0.14048785
611.627	0.14050935
611.826	0.14059716
612.025	0.14067071
612.224	0.14064614
612.422	0.14073245
612.621	0.14072926
612.82	0.1407607
613.019	0.14074835
613.218	0.14071399
613.416	0.14064796
613.615	0.1406461
613.814	0.14059122
614.012	0.14054329
614.211	0.14046335
614.41	0.14045309
614.608	0.14047456
614.807	0.14044002
615.006	0.14047694
615.204	0.14045144
615.403	0.14040782
615.602	0.14044716
615.8	0.14047701
615.999	0.14042266
616.197	0.14038753
616.396	0.14037619
616.594	0.14030661
616.793	0.14030227
616.991	0.14025598
617.19	0.14010203
617.388	0.14012235
617.586	0.14011587
617.785	0.13999632
617.983	0.1400088
618.182	0.13991031
618.38	0.13977009
618.578	0.13976097
618.777	0.13968261
618.975	0.1396575
619.173	0.13961575
619.372	0.13956294
619.57	0.13951766
619.768	0.13953894
619.966	0.13952888
620.165	0.13945655
620.363	0.13935683
620.561	0.1392564
620.759	0.13913223
620.957	0.13912889
621.155	0.13909766
621.354	0.13897883
621.552	0.13894777
621.75	0.13887841
621.948	0.13888233
622.146	0.13885995
622.344	0.13875083
622.542	0.13864063
622.74	0.13854859
622.938	0.13837812
623.136	0.13835731
623.334	0.13832131
623.532	0.13822118
623.73	0.13812131
623.928	0.13809512
624.126	0.13806129
624.324	0.13809704
624.522	0.13790317
624.719	0.13779111
624.917	0.13776745
625.115	0.13767867
625.313	0.13759404
625.511	0.13755137
625.708	0.13737227
625.906	0.13734203
626.104	0.13718444
626.302	0.13711341
626.499	0.13699894
626.697	0.13682163
626.895	0.13665439
627.093	0.136586
627.29	0.13651462
627.488	0.13643507
627.686	0.13627369
627.883	0.13615326
628.081	0.13601709
628.278	0.13600763
628.476	0.13584793
628.673	0.13569498
628.871	0.13557383
629.068	0.13548183
629.266	0.13548934
629.463	0.13544598
629.661	0.13526808
629.858	0.13518899
630.056	0.13509506
630.253	0.1349702
630.451	0.13489192
630.648	0.13471355
630.845	0.13457657
631.043	0.13449035
631.24	0.13441465
631.438	0.13430541
631.635	0.1342014
631.832	0.13407005
632.029	0.13397879
632.227	0.13389158
632.424	0.1337565
632.621	0.13357941
632.818	0.13339742
633.016	0.13329052
633.213	0.13306094
633.41	0.13294713
633.607	0.13277991
633.804	0.13261475
634.001	0.13243226
634.199	0.1323595
634.396	0.13223161
634.593	0.13209259
634.79	0.13193763
634.987	0.13179664
635.184	0.13167116
635.381	0.13162364
635.578	0.13147906
635.775	0.13135385
635.972	0.13128844
636.169	0.13112454
636.366	0.13097401
636.563	0.13084552
636.76	0.13059099
636.957	0.13043238
637.153	0.13016215
637.35	0.12995833
637.547	0.12983979
637.744	0.12971107
637.941	0.12952867
638.138	0.12946787
638.334	0.12927655
638.531	0.12915272
638.728	0.12901231
638.925	0.12885979
639.121	0.12870056
639.318	0.12857119
639.515	0.12835919
639.711	0.12827657
639.908	0.12810891
640.105	0.1279592
640.301	0.12774873
640.498	0.12756075
640.695	0.12741218
640.891	0.1272351
641.088	0.12700348
641.284	0.12686289
641.481	0.126645
641.677	0.12645289
641.874	0.12621045
642.07	0.12601655
642.267	0.12590303
642.463	0.12572147
642.66	0.1255455
642.856	0.12539503
643.053	0.12520947
643.249	0.12511301
643.445	0.12491647
643.642	0.12472332
643.838	0.12456093
644.034	0.12433879
644.231	0.12415936
644.427	0.1239923
644.623	0.12378983
644.82	0.12366881
645.016	0.12348638
645.212	0.12327821
645.408	0.12314816
645.604	0.12304953
645.801	0.1229569
645.997	0.1228098
646.193	0.12259205
646.389	0.12245008
646.585	0.12228369
646.781	0.12213648
646.977	0.12187045
647.173	0.12162895
647.37	0.12136903
647.566	0.12115118
647.762	0.12091652
647.958	0.120722
648.154	0.12043141
648.35	0.12020657
648.546	0.12001242
648.742	0.11993073
648.937	0.11969159
649.133	0.1195318
649.329	0.11941094
649.525	0.11930651
649.721	0.11914298
649.917	0.11895828
650.113	0.11866783
650.309	0.11854241
650.504	0.11827674
650.7	0.11805632
650.896	0.11786527
651.092	0.1176747
651.287	0.11746122
651.483	0.11731321
651.679	0.1170368
651.875	0.1168841
652.07	0.11660765
652.266	0.116363
652.462	0.1161788
652.657	0.11600313
652.853	0.11579111
653.048	0.11564356
653.244	0.11539563
653.44	0.11519373
653.635	0.11494431
653.831	0.11478791
654.026	0.11457648
654.222	0.11438516
654.417	0.11419487
654.613	0.11399858
654.808	0.11379822
655.004	0.11364846
655.199	0.11336217
655.394	0.11309113
655.59	0.11289723
655.785	0.11269778
655.98	0.11255263
656.176	0.1123627
656.371	0.11219525
656.566	0.11203175
656.762	0.1118516
656.957	0.11168567
657.152	0.11146579
657.348	0.11124518
657.543	0.11107531
657.738	0.11087219
657.933	0.11064371
658.128	0.11042175
658.324	0.11014529
658.519	0.10992666
658.714	0.10970248
658.909	0.10940507
659.104	0.10915292
659.299	0.10887912
659.494	0.10864681
659.689	0.10840296
659.884	0.1081749
660.079	0.10792122
660.274	0.1077385
660.469	0.10750584
660.664	0.10739098
660.859	0.10724448
661.054	0.10707392
661.249	0.10689857
661.444	0.10669795
661.639	0.10651848
661.834	0.10630799
662.029	0.1060309
662.224	0.10577493
662.418	0.10556285
662.613	0.10532084
662.808	0.10510624
663.003	0.10488621
663.198	0.10467412
663.392	0.10446652
663.587	0.10436556
663.782	0.10412213
663.977	0.10391003
664.171	0.10371704
664.366	0.10351607
664.561	0.10332473
664.755	0.10315046
664.95	0.10285021
665.144	0.10264864
665.339	0.10245224
665.534	0.10223033
665.728	0.10203962
665.923	0.10183936
666.117	0.10165813
666.312	0.10144153
666.506	0.1012481
666.701	0.10097347
666.895	0.10076473
667.09	0.10053868
667.284	0.10033278
667.479	0.10004904
667.673	0.09981861
667.867	0.09961005
668.062	0.09945108
668.256	0.0992205
668.45	0.09903686
668.645	0.09878504
668.839	0.09859578
669.033	0.09837512
669.228	0.09811217
669.422	0.09786171
669.616	0.09764032
669.81	0.09737485
670.004	0.09715204
670.199	0.09694766
670.393	0.09672824
670.587	0.09655353
670.781	0.09636813
670.975	0.09616312
671.169	0.09592856
671.363	0.09567207
671.558	0.09550839
671.752	0.09536042
671.946	0.09519235
672.14	0.09500732
672.334	0.09483883
672.528	0.09474764
672.722	0.09462966
672.916	0.09433769
673.11	0.09406966
673.304	0.09384622
673.497	0.09357228
673.691	0.0933323
673.885	0.09300193
674.079	0.09277126
674.273	0.09256149
674.467	0.09237758
674.661	0.0921675
674.854	0.09196341
675.048	0.09175965
675.242	0.09161066
675.436	0.09138399
675.629	0.09120979
675.823	0.09097499
676.017	0.09073429
676.211	0.09053167
676.404	0.09031022
676.598	0.09008741
676.792	0.0899052
676.985	0.08969323
677.179	0.08950024
677.372	0.08924914
677.566	0.08910066
677.76	0.08889113
677.953	0.08865125
678.147	0.08845352
678.34	0.08826252
678.534	0.08800715
678.727	0.08788782
678.921	0.0877262
679.114	0.0875128
679.307	0.08732257
679.501	0.08715268
679.694	0.08696291
679.888	0.08681636
680.081	0.0866029
680.274	0.08634012
680.468	0.08619029
680.661	0.0860491
680.854	0.08585025
681.048	0.08566745
681.241	0.08548174
681.434	0.08521636
681.627	0.08502357
681.821	0.0847923
682.014	0.0846028
682.207	0.08436885
682.4	0.08409933
682.593	0.08388167
682.786	0.08371562
682.98	0.08351318
683.173	0.08332154
683.366	0.08303328
683.559	0.08277352
683.752	0.08260162
683.945	0.08241036
684.138	0.08227766
684.331	0.08209048
684.524	0.08195683
684.717	0.08182191
684.91	0.08168139
685.103	0.08152071
685.296	0.08137681
685.489	0.08115203
685.682	0.08093669
685.874	0.08071257
686.067	0.08048478
686.26	0.08030506
686.453	0.08008901
686.646	0.0798084
686.839	0.07961724
687.031	0.07942748
687.224	0.0791969
687.417	0.07907342
687.61	0.07887482
687.802	0.078719
687.995	0.07860683
688.188	0.07845784
688.38	0.07830652
688.573	0.07825208
688.766	0.07810807
688.958	0.0779682
689.151	0.07779045
689.343	0.07762252
689.536	0.07742505
689.729	0.07723851
689.921	0.07697569
690.114	0.07677438
690.306	0.07662318
690.499	0.0764662
690.691	0.07631175
690.884	0.07615124
691.076	0.07597622
691.268	0.07579413
691.461	0.07558357
691.653	0.0754047
691.846	0.07527976
692.038	0.07508464
692.23	0.0749007
692.423	0.07478528
692.615	0.07461963
692.807	0.07444001
692.999	0.0742956
693.192	0.07407029
693.384	0.07389742
693.576	0.07368088
693.768	0.07347498
693.961	0.07329858
694.153	0.07314701
694.345	0.07291232
694.537	0.07272864
694.729	0.07255146
694.921	0.07244209
695.113	0.07229302
695.305	0.07217039
695.498	0.07197058
695.69	0.07181477
695.882	0.07160903
696.074	0.07146093
696.266	0.0712701
696.458	0.07108965
696.65	0.07089896
696.842	0.07076045
697.033	0.07060177
697.225	0.07047351
697.417	0.07034779
697.609	0.07022925
697.801	0.07007433
697.993	0.06994903
698.185	0.06979726
698.376	0.0696624
698.568	0.0695084
698.76	0.06934363
698.952	0.069207
699.144	0.06905687
699.335	0.06890589
699.527	0.06874541
699.719	0.06860093
699.91	0.06849248
700.102	0.06830113
700.294	0.06813106
700.485	0.06799441
700.677	0.06782826
700.869	0.06770255
701.06	0.06758998
701.252	0.06741079
701.443	0.06728865
701.635	0.06714401
701.826	0.06698959
702.018	0.06688512
702.209	0.06677585
702.401	0.06660345
702.592	0.06645762
702.784	0.06629013
702.975	0.06616967
703.166	0.06605327
703.358	0.06583311
703.549	0.0656777
703.741	0.06553379
703.932	0.06542468
704.123	0.06530692
704.315	0.06516086
704.506	0.06499918
704.697	0.06487757
704.888	0.06470419
705.08	0.06453304
705.271	0.06438321
705.462	0.06426133
705.653	0.06412937
705.844	0.06396916
706.035	0.06387741
706.227	0.06372341
706.418	0.06363181
706.609	0.06349329
706.8	0.06334152
706.991	0.06315571
707.182	0.06303911
707.373	0.06282452
707.564	0.06271771
707.755	0.06256168
707.946	0.06246442
708.137	0.0623468
708.328	0.06220099
708.519	0.0620964
708.71	0.06205567
708.901	0.06191195
709.092	0.06175919
709.283	0.06160886
709.473	0.06150754
709.664	0.06143431
709.855	0.06135084
710.046	0.0612292
710.237	0.06118757
710.427	0.06114328
710.618	0.0610575
710.809	0.06091537
711	0.06081864
711.19	0.06068375
711.381	0.06054335
711.572	0.06037307
711.762	0.0602314
711.953	0.06008892
712.144	0.05999077
712.334	0.05988864
712.525	0.05980266
712.715	0.05970781
712.906	0.05962211
713.097	0.05945182
713.287	0.0593068
713.478	0.05921691
713.668	0.05908311
713.859	0.05887839
714.049	0.05876919
714.239	0.05863399
714.43	0.05856402
714.62	0.05850327
714.811	0.05835934
715.001	0.05823344
715.191	0.05822024
715.382	0.05807683
715.572	0.05796539
715.762	0.05784746
715.953	0.05772553
716.143	0.05762437
716.333	0.05752685
716.523	0.0573578
716.714	0.05731364
716.904	0.05723768
717.094	0.05713923
717.284	0.05703383
717.474	0.05693817
717.664	0.05691778
717.855	0.05686319
718.045	0.0567155
718.235	0.05660717
718.425	0.05653361
718.615	0.05646521
718.805	0.05636944
718.995	0.05620186
719.185	0.05612185
719.375	0.05604998
719.565	0.05597356
719.755	0.05589926
719.945	0.0558303
720.135	0.05575984
720.325	0.0556686
720.515	0.05556845
720.704	0.05552753
720.894	0.05547056
721.084	0.05535478
721.274	0.0552314
721.464	0.05508373
721.654	0.05497383
721.843	0.05484413
722.033	0.05469483
722.223	0.05458926
722.413	0.05456199
722.602	0.05453506
722.792	0.05452776
722.982	0.05451969
723.171	0.0544548
723.361	0.05447484
723.55	0.05443653
723.74	0.05434199
723.93	0.05423887
724.119	0.05418411
724.309	0.05412497
724.498	0.05405873
724.688	0.05391112
724.877	0.05382608
725.067	0.05374749
725.256	0.05366281
725.446	0.0535488
725.635	0.053444
725.825	0.05343111
726.014	0.05333671
726.203	0.05322116
726.393	0.05311086
726.582	0.05304014
726.771	0.05296247
726.961	0.0528746
727.15	0.05277197
727.339	0.05270594
727.529	0.05262838
727.718	0.05253703
727.907	0.05244745
728.096	0.05236126
728.286	0.0522898
728.475	0.05218659
728.664	0.05207293
728.853	0.05200831
729.042	0.05194451
729.231	0.05182573
729.42	0.05177878
729.609	0.05166506
729.799	0.05151766
729.988	0.05149697
730.177	0.05139953
730.366	0.05127828
730.555	0.05122027
730.744	0.05104313
730.933	0.05093702
731.122	0.0508598
731.31	0.05069396
731.499	0.05055679
731.688	0.05048693
731.877	0.05036179
732.066	0.05037832
732.255	0.05034607
732.444	0.05030677
732.632	0.05030865
732.821	0.05028428
733.01	0.05028624
733.199	0.05029972
733.388	0.05020924
733.576	0.05009721
733.765	0.05005666
733.954	0.04997334
734.142	0.04988165
734.331	0.04976382
734.52	0.0496632
734.708	0.04958004
734.897	0.04954234
735.086	0.04944387
735.274	0.04942285
735.463	0.0494206
735.651	0.04938614
735.84	0.04933444
736.028	0.04926318
736.217	0.04922976
736.405	0.04916367
736.594	0.04901599
736.782	0.04890413
736.971	0.04883057
737.159	0.04877132
737.347	0.04876111
737.536	0.0487093
737.724	0.04867282
737.912	0.0486403
738.101	0.0486252
738.289	0.04853949
738.477	0.04843981
738.666	0.04835657
738.854	0.04823522
739.042	0.0481969
739.23	0.04815584
739.418	0.04804437
739.607	0.04800997
739.795	0.04795564
739.983	0.04784984
740.171	0.04776992
740.359	0.04766601
740.547	0.04755856
740.735	0.0475435
740.923	0.04751781
741.112	0.04750561
741.3	0.04747829
741.488	0.04741488
741.676	0.04737339
741.864	0.04735268
742.052	0.04728681
742.239	0.04720586
742.427	0.04714374
742.615	0.04707225
742.803	0.04705378
742.991	0.04697767
743.179	0.04692913
743.367	0.04686484
743.555	0.04689603
743.742	0.04685985
743.93	0.0468382
744.118	0.04678968
744.306	0.04679821
744.494	0.04676364
744.681	0.04666448
744.869	0.04646054
745.057	0.04636658
745.244	0.04624605
745.432	0.04618482
745.62	0.04604064
745.807	0.04596887
745.995	0.04595348
746.182	0.04595529
746.37	0.04592997
746.558	0.0459233
746.745	0.04587473
746.933	0.04587339
747.12	0.0458264
747.308	0.04578394
747.495	0.04576963
747.683	0.04572821
747.87	0.04569126
748.057	0.04572737
748.245	0.04571322
748.432	0.04564446
748.62	0.04562244
748.807	0.04554594
748.994	0.04545777
749.182	0.04534989
749.369	0.04519885
749.556	0.04514159
749.743	0.04506862
749.931	0.04500971
750.118	0.0449885
750.305	0.04500078
750.492	0.04499155
750.68	0.04496843
750.867	0.04491538
751.054	0.04494293
751.241	0.04489923
751.428	0.04477636
751.615	0.04471572
751.802	0.04470196
751.989	0.04469448
752.176	0.04469748
752.363	0.04468721
752.55	0.044653
752.737	0.04469709
752.924	0.04468962
753.111	0.04469652
753.298	0.04465802
753.485	0.04457041
753.672	0.04447233
753.859	0.04441683
754.046	0.04437129
754.233	0.04423342
754.42	0.04412783
754.606	0.0440688
754.793	0.0439963
754.98	0.04393566
755.167	0.04389773
755.353	0.04385863
755.54	0.04385635
755.727	0.04377816
755.914	0.04371993
756.1	0.04368574
756.287	0.04367908
756.474	0.0435856
756.66	0.04349152
756.847	0.0434133
757.033	0.04340876
757.22	0.04339787
757.407	0.04336177
757.593	0.04331166
757.78	0.04332572
757.966	0.04326792
758.153	0.04322272
758.339	0.04312372
758.526	0.04309522
758.712	0.04310991
758.898	0.04311878
759.085	0.04307543
759.271	0.04307898
759.458	0.04308674
759.644	0.04315631
759.83	0.04310732
760.017	0.04301201
760.203	0.04290608
760.389	0.04288398
760.576	0.04285032
760.762	0.04284905
760.948	0.0427035
761.134	0.04264933
761.32	0.04260373
761.507	0.04258656
761.693	0.04252255
761.879	0.0424326
762.065	0.04233987
762.251	0.04232767
762.437	0.04230261
762.623	0.04233806
762.809	0.0422759
762.995	0.04228568
763.181	0.04227089
763.367	0.0422685
763.553	0.04222472
763.739	0.04215888
763.925	0.04205106
764.111	0.04202747
764.297	0.041958
764.483	0.04190403
764.669	0.0418227
764.855	0.04184731
765.041	0.04182797
765.227	0.0418452
765.412	0.04186392
765.598	0.04182875
765.784	0.04179263
765.97	0.04177873
766.156	0.04170962
766.341	0.041641
766.527	0.0415611
766.713	0.04146981
766.898	0.0414209
767.084	0.04141261
767.27	0.04135496
767.455	0.04135737
767.641	0.04133253
767.827	0.0412869
768.012	0.04120106
768.198	0.04119513
768.383	0.04119107
768.569	0.04116288
768.754	0.04111681
768.94	0.04113547
769.125	0.04115993
769.311	0.041212
769.496	0.04117851
769.682	0.04111996
769.867	0.04105484
770.052	0.04105418
770.238	0.04101549
770.423	0.04096435
770.608	0.04086325
770.794	0.0407959
770.979	0.0407881
771.164	0.0407618
771.35	0.04067398
771.535	0.04061916
771.72	0.04057323
771.905	0.04055799
772.09	0.04046368
772.276	0.04041392
772.461	0.04042285
772.646	0.04041958
772.831	0.04041837
773.016	0.04035767
773.201	0.04032814
773.386	0.04031776
773.571	0.04025681
773.756	0.04014203
773.941	0.04005106
774.126	0.03989646
774.311	0.03980422
774.496	0.03970832
774.681	0.0396337
774.866	0.03957965
775.051	0.039588
775.236	0.0395805
775.421	0.03959323
775.606	0.03957004
775.791	0.03958823
775.976	0.0395773
776.16	0.03953927
776.345	0.03954485
776.53	0.03950953
776.715	0.03951048
776.899	0.03948413
777.084	0.03941604
777.269	0.03948096
777.454	0.03951003
777.638	0.03947903
777.823	0.03936662
778.008	0.03925118
778.192	0.0393149
778.377	0.03933137
778.561	0.03927012
778.746	0.0392939
778.931	0.03931548
779.115	0.03934334
779.3	0.03941659
779.484	0.03933627
779.669	0.03927364
779.853	0.03922261
780.037	0.0390643
780.222	0.03893645
780.406	0.03890414
780.591	0.03880733
780.775	0.03874476
780.959	0.03877344
781.144	0.03869106
781.328	0.03864745
781.512	0.03861496
781.697	0.03857718
781.881	0.03852735
782.065	0.03847704
782.249	0.03831864
782.434	0.03827514
782.618	0.0382896
782.802	0.0383118
782.986	0.03829887
783.17	0.03826448
783.354	0.03822209
783.539	0.03821315
783.723	0.03821012
783.907	0.0381533
784.091	0.0379867
784.275	0.03787751
784.459	0.0377262
784.643	0.03769168
784.827	0.03766706
785.011	0.03764186
785.195	0.03758756
785.379	0.03762928
785.563	0.03766225
785.747	0.03773102
785.93	0.03769177
786.114	0.03763344
786.298	0.03756531
786.482	0.03751933
786.666	0.03746665
786.85	0.03745205
787.033	0.03747668
787.217	0.0374284
787.401	0.03749052
787.585	0.03751144
787.768	0.03751881
787.952	0.03751936
788.136	0.03747621
788.319	0.03740069
788.503	0.03738787
788.687	0.03729678
788.87	0.03720926
789.054	0.03710352
789.237	0.03697826
789.421	0.03691049
789.605	0.03684981
789.788	0.03680518
789.972	0.03676877
790.155	0.03664733
790.338	0.0366016
790.522	0.0365129
790.705	0.03644909
790.889	0.03638042
791.072	0.03629321
791.256	0.03616237
791.439	0.03614878
791.622	0.03609336
791.806	0.03617721
791.989	0.03617101
792.172	0.03619514
792.355	0.03615433
792.539	0.03618643
792.722	0.03611012
792.905	0.03609044
793.088	0.03596781
793.271	0.0358914
793.455	0.03584766
793.638	0.03587217
793.821	0.03580443
794.004	0.03584205
794.187	0.03581226
794.37	0.03576747
794.553	0.03572111
794.736	0.03572819
794.919	0.03571514
795.102	0.03577652
795.285	0.0358116
795.468	0.03581995
795.651	0.03588236
795.834	0.03582548
796.017	0.03565873
796.2	0.0355763
796.383	0.03545496
796.566	0.03540571
796.749	0.03539098
796.931	0.03528804
797.114	0.03524543
797.297	0.03528435
797.48	0.03519269
797.663	0.03517829
797.845	0.03504278
798.028	0.034918
798.211	0.03482966
798.393	0.03479869
798.576	0.03470584
798.759	0.03470898
798.941	0.03468043
799.124	0.03467424
799.307	0.03471009
799.489	0.03472573
799.672	0.03469848
799.854	0.03471813
800.037	0.03461818
800.219	0.03451782
800.402	0.03448847
800.584	0.03440568
800.767	0.03432813
800.949	0.03430082
801.132	0.0342115
801.314	0.03420433
801.496	0.03414796
801.679	0.03409168
801.861	0.03399812
802.043	0.03394618
802.226	0.03388374
802.408	0.0338351
802.59	0.03379665
802.772	0.0337794
802.955	0.03377788
803.137	0.03371301
803.319	0.03367039
803.501	0.03356792
803.684	0.03349407
803.866	0.0334335
804.048	0.03333153
804.23	0.03325564
804.412	0.03328069
804.594	0.03323462
804.776	0.03326337
804.958	0.03322822
805.14	0.03321354
805.322	0.03325596
805.504	0.03316062
805.686	0.03312688
805.868	0.03309881
806.05	0.03299461
806.232	0.03293804
806.414	0.03287826
806.596	0.03278756
806.778	0.03276725
806.96	0.03272822
807.141	0.03266531
807.323	0.03256898
807.505	0.0324732
807.687	0.03233689
807.869	0.03222365
808.05	0.03217007
808.232	0.03203472
808.414	0.03197739
808.595	0.03198573
808.777	0.03201323
808.959	0.03206397
809.14	0.03213456
809.322	0.03206145
809.504	0.03204035
809.685	0.03198892
809.867	0.03201373
810.048	0.03198071
810.23	0.03195234
810.411	0.03183914
810.593	0.03183418
810.774	0.03180017
810.956	0.03174307
811.137	0.03166068
811.319	0.03159277
811.5	0.0316068
811.681	0.03163801
811.863	0.03158803
812.044	0.03155989
812.225	0.03159899
812.407	0.03148987
812.588	0.03145738
812.769	0.03132416
812.951	0.03118896
813.132	0.03109844
813.313	0.03104415
813.494	0.03103573
813.675	0.03104953
813.857	0.03095836
814.038	0.03091315
814.219	0.03091115
814.4	0.03085802
814.581	0.03075536
814.762	0.03058724
814.943	0.03055657
815.124	0.03056764
815.305	0.03053914
815.486	0.03043088
815.667	0.03039503
815.848	0.03045705
816.029	0.0304599
816.21	0.03031948
816.391	0.03025167
816.572	0.03018194
816.753	0.03013995
816.934	0.03013251
817.115	0.0299828
817.295	0.02994503
817.476	0.02999582
817.657	0.03000583
817.838	0.02998122
818.019	0.03000547
818.199	0.02995044
818.38	0.02997638
818.561	0.02991751
818.741	0.02979116
818.922	0.02960701
819.103	0.0295722
819.283	0.02950211
819.464	0.02942458
819.645	0.02933027
819.825	0.02926891
820.006	0.02923693
820.186	0.0292072
820.367	0.02907927
820.547	0.029022
820.728	0.02902053
820.908	0.02893915
821.089	0.02892438
821.269	0.02893138
821.45	0.02893434
821.63	0.02893451
821.81	0.02885173
821.991	0.02880667
822.171	0.02882954
822.351	0.02878338
822.532	0.02867168
822.712	0.02862928
822.892	0.0285611
823.072	0.02853154
823.253	0.02849528
823.433	0.02840956
823.613	0.02835852
823.793	0.02835834
823.973	0.02831311
824.154	0.02825504
824.334	0.02820501
824.514	0.02814382
824.694	0.02809555
824.874	0.02804394
825.054	0.027998
825.234	0.02798046
825.414	0.02795135
825.594	0.02794304
825.774	0.02784992
825.954	0.02776809
826.134	0.02762314
826.314	0.02755919
826.494	0.02752441
826.674	0.02749444
826.854	0.02741756
827.033	0.02743614
827.213	0.02742779
827.393	0.02743902
827.573	0.02738891
827.753	0.02729652
827.932	0.02723838
828.112	0.02722212
828.292	0.02715052
828.472	0.02705207
828.651	0.02698531
828.831	0.0268619
829.011	0.02676996
829.19	0.02666127
829.37	0.02655045
829.549	0.02646217
829.729	0.02648868
829.909	0.02641754
830.088	0.02637129
830.268	0.02632369
830.447	0.02632785
830.627	0.02630176
830.806	0.026238
830.986	0.02612185
831.165	0.02608048
831.344	0.02606883
831.524	0.02599295
831.703	0.02592103
831.883	0.02586221
832.062	0.02585211
832.241	0.02585482
832.421	0.02587007
832.6	0.02577673
832.779	0.02572794
832.958	0.02566599
833.138	0.02558023
833.317	0.02539824
833.496	0.02519374
833.675	0.02504472
833.854	0.02504217
834.034	0.02497635
834.213	0.02491054
834.392	0.024876
834.571	0.02485913
834.75	0.02485964
834.929	0.02483483
835.108	0.02476326
835.287	0.02467137
835.466	0.02460529
835.645	0.02448269
835.824	0.02445026
836.003	0.02443545
836.182	0.02439729
836.361	0.02436796
836.54	0.0243949
836.719	0.02440926
836.897	0.02439318
837.076	0.02438454
837.255	0.0243249
837.434	0.02426629
837.613	0.02421205
837.791	0.02409529
837.97	0.02397708
838.149	0.02397042
838.328	0.02394101
838.506	0.02389947
838.685	0.02378995
838.864	0.02371106
839.042	0.02370045
839.221	0.02361405
839.4	0.02355757
839.578	0.02339359
839.757	0.02327984
839.935	0.02334626
840.114	0.02327477
840.292	0.02327539
840.471	0.0232622
840.649	0.02314958
840.828	0.02316513
841.006	0.0231506
841.185	0.02303366
841.363	0.02299741
841.541	0.02299768
841.72	0.02302857
841.898	0.02311391
842.076	0.02303599
842.255	0.02295045
842.433	0.02282926
842.611	0.02275882
842.789	0.02261046
842.968	0.02244741
843.146	0.02229315
843.324	0.02221423
843.502	0.02223806
843.68	0.02219459
843.859	0.02216735
844.037	0.02212941
844.215	0.02212208
844.393	0.02209475
844.571	0.02216014
844.749	0.02204912
844.927	0.02196167
845.105	0.02188068
845.283	0.02178863
845.461	0.0217785
845.639	0.02172481
845.817	0.02162193
845.995	0.02163563
846.173	0.02175374
846.351	0.02182227
846.529	0.02184177
846.706	0.02175621
846.884	0.02172862
847.062	0.02164025
847.24	0.02157911
847.418	0.02146302
847.595	0.02135485
847.773	0.02132457
847.951	0.02128098
848.129	0.02114953
848.306	0.02113003
848.484	0.02107674
848.662	0.02107229
848.839	0.02099169
849.017	0.02088541
849.194	0.02076219
849.372	0.02073791
849.549	0.02069905
849.727	0.02075945
849.905	0.0206949
850.082	0.02071641
850.26	0.02073739
850.437	0.02075818
850.614	0.02079256
850.792	0.0207935
850.969	0.02067539
851.147	0.02062193
851.324	0.02055525
851.501	0.0204848
851.679	0.02040847
851.856	0.02028535
852.033	0.02012488
852.211	0.02010678
852.388	0.02003966
852.565	0.01990811
852.742	0.01972908
852.92	0.01975543
853.097	0.01965617
853.274	0.01959116
853.451	0.01940646
853.628	0.01940124
853.805	0.01943465
853.982	0.01949831
854.159	0.01943046
854.336	0.01951676
854.514	0.01947188
854.691	0.01945789
854.868	0.01934655
855.045	0.01925575
855.221	0.01918799
855.398	0.01909504
855.575	0.01896547
855.752	0.01895608
855.929	0.0189144
856.106	0.01884425
856.283	0.0188301
856.46	0.01873439
856.637	0.01872419
856.813	0.01864348
856.99	0.01856797
857.167	0.01855844
857.344	0.01850997
857.52	0.01837248
857.697	0.01842089
857.874	0.01829368
858.05	0.01825094
858.227	0.01817473
858.404	0.01811012
858.58	0.0180488
858.757	0.01807611
858.933	0.01795899
859.11	0.01791561
859.287	0.01788385
859.463	0.01782864
859.64	0.01775127
859.816	0.01768499
859.993	0.01759752
860.169	0.01752787
860.345	0.01752721
860.522	0.01748856
860.698	0.01742947
860.875	0.01737403
861.051	0.01738576
861.227	0.01735325
861.404	0.01736244
861.58	0.01736487
861.756	0.0173948
861.932	0.01746781
862.109	0.0174933
862.285	0.01743312
862.461	0.01742831
862.637	0.01734627
862.813	0.0173506
862.99	0.0171226
863.166	0.01702953
863.342	0.0169601
863.518	0.01699867
863.694	0.01692413
863.87	0.01697889
864.046	0.01684305
864.222	0.01702151
864.398	0.01706304
864.574	0.0170807
864.75	0.016967
864.926	0.01693768
865.102	0.01674841
865.278	0.01673575
865.454	0.01663324
865.63	0.01650793
865.805	0.01638916
865.981	0.01636865
866.157	0.01630127
866.333	0.01634469
866.509	0.01621613
866.684	0.01608425
866.86	0.01604457
867.036	0.01601444
867.212	0.01590804
867.387	0.01587289
867.563	0.01574008
867.739	0.01575191
867.914	0.01581502
868.09	0.0158406
868.265	0.01590884
868.441	0.01600139
868.617	0.01606148
868.792	0.01606411
868.968	0.01597633
869.143	0.01588105
869.319	0.01578661
869.494	0.0157006
869.67	0.01553747
869.845	0.01532407
870.02	0.01524088
870.196	0.01524994
870.371	0.01520828
870.546	0.01521558
870.722	0.01519497
870.897	0.01527471
871.072	0.01530681
871.248	0.01531228
871.423	0.01524078
871.598	0.01519075
871.773	0.01508384
871.949	0.01500032
872.124	0.01481629
872.299	0.01478266
872.474	0.01465464
872.649	0.0145879
872.824	0.01455417
872.999	0.01452031
873.174	0.0145337
873.349	0.01457235
873.524	0.01458995
873.699	0.01466843
873.874	0.01466257
874.049	0.01460473
874.224	0.01454274
874.399	0.01438801
874.574	0.01433874
874.749	0.01423589
874.924	0.01424986
875.099	0.01428728
875.274	0.01430188
875.449	0.01431324
875.623	0.01431835
875.798	0.01423094
875.973	0.01413865
876.148	0.01401292
876.322	0.01395455
876.497	0.01387297
876.672	0.01381057
876.846	0.01371285
877.021	0.01371469
877.196	0.01365613
877.37	0.01364384
877.545	0.01354401
877.72	0.01353139
877.894	0.01343489
878.069	0.01342295
878.243	0.01339254
878.418	0.01337688
878.592	0.01328344
878.767	0.01321538
878.941	0.01315251
879.116	0.01315496
879.29	0.01308494
879.464	0.01305747
879.639	0.01306002
879.813	0.01300947
879.987	0.01301538
880.162	0.01296107
880.336	0.01287516
880.51	0.01286045
880.685	0.01276749
880.859	0.01269315
881.033	0.01271215
881.207	0.01268681
881.381	0.01258557
881.556	0.01254294
881.73	0.01245665
881.904	0.01238949
882.078	0.01240613
882.252	0.01232221
882.426	0.01224882
882.6	0.01217563
882.774	0.01209131
882.948	0.01211556
883.122	0.01213857
883.296	0.01206977
883.47	0.01206198
883.644	0.01204442
883.818	0.01208891
883.992	0.0121654
884.166	0.01200801
884.34	0.01196908
884.514	0.01194104
884.687	0.01198372
884.861	0.01182224
885.035	0.01190846
885.209	0.01191413
885.382	0.01198671
885.556	0.01190141
885.73	0.01175853
885.904	0.01156822
886.077	0.01157294
886.251	0.01145866
886.425	0.01132792
886.598	0.01122645
886.772	0.01131476
886.945	0.01137107
887.119	0.01148744
887.292	0.01150942
887.466	0.01150179
887.64	0.01147529
887.813	0.01151751
887.986	0.01145524
888.16	0.01147892
888.333	0.01144065
888.507	0.01132902
888.68	0.01112007
888.854	0.01111494
889.027	0.01109443
889.2	0.01099671
889.374	0.01092797
889.547	0.01086358
889.72	0.01098844
889.893	0.01113382
890.067	0.01116057
890.24	0.01109678
890.413	0.01112546
890.586	0.01113145
890.759	0.01104508
890.933	0.01093169
891.106	0.01078292
891.279	0.01060378
891.452	0.01046875
891.625	0.01033698
891.798	0.01010615
891.971	0.01010793
892.144	0.01002121
892.317	0.0100256
892.49	0.0101835
892.663	0.0103016
892.836	0.01029177
893.009	0.01032905
893.182	0.01031338
893.355	0.0102591
893.527	0.01024411
893.7	0.01012627
893.873	0.00997287
894.046	0.00997853
894.219	0.00988494
894.391	0.00969627
894.564	0.00963475
894.737	0.00957233
894.91	0.00941695
895.082	0.00928752
895.255	0.00920192
895.428	0.00925892
895.6	0.00941626
895.773	0.00945488
895.945	0.00943138
896.118	0.00945232
896.291	0.00952966
896.463	0.00949111
896.636	0.00947143
896.808	0.00938574
896.981	0.00933791
897.153	0.00929688
897.326	0.00932699
897.498	0.00940084
897.67	0.00941971
897.843	0.00932973
898.015	0.00935744
898.187	0.00944677
898.36	0.00949137
898.532	0.00947883
898.704	0.0094822
898.877	0.0095158
899.049	0.00962074
899.221	0.0095795
899.393	0.00954421
899.566	0.00943281
899.738	0.00938814
899.91	0.00930144
900.082	0.00920905
900.254	0.0090687
900.426	0.00895941
900.598	0.00885258
900.77	0.0088072
900.942	0.00883412
901.114	0.00879947
901.286	0.00872838
901.458	0.00869887
901.63	0.00857997
901.802	0.00855486
901.974	0.0084854
902.146	0.0082991
902.318	0.00818272
902.49	0.00821793
902.662	0.0082347
902.834	0.00825382
903.005	0.00814606
903.177	0.00821882
903.349	0.00825665
903.521	0.0083669
903.693	0.00836397
903.864	0.00831956
904.036	0.00834866
904.208	0.00842068
904.379	0.00830359
904.551	0.00829508
904.723	0.00816758
904.894	0.00802502
905.066	0.00798174
905.237	0.00794395
905.409	0.00786702
905.58	0.0078565
905.752	0.00786039
905.923	0.00781458
906.095	0.00782444
906.266	0.00786104
906.438	0.00787214
906.609	0.00789743
906.78	0.00791117
906.952	0.00784201
907.123	0.00791138
907.295	0.00790555
907.466	0.00775915
907.637	0.00768251
907.808	0.00763034
907.98	0.00766151
908.151	0.0077291
908.322	0.00763123
908.493	0.0076743
908.665	0.00777821
908.836	0.00777039
909.007	0.0077426
909.178	0.00770696
909.349	0.00751593
909.52	0.00752664
909.691	0.00734873
909.862	0.00720436
910.033	0.00723895
910.204	0.0072025
910.375	0.00720821
910.546	0.00726532
910.717	0.00731499
910.888	0.00732824
911.059	0.00742938
911.23	0.00741142
911.401	0.00746304
911.572	0.00742383
911.742	0.00728514
911.913	0.0071228
912.084	0.00718674
912.255	0.00712336
912.426	0.0070565
912.596	0.00701721
912.767	0.00708406
912.938	0.00719623
913.108	0.00733648
913.279	0.00725481
913.45	0.00734824
913.62	0.00742662
913.791	0.00745755
913.962	0.00735421
914.132	0.00730777
914.303	0.00718162
914.473	0.00722778
914.644	0.00704146
914.814	0.00689237
914.985	0.00676677
915.155	0.0065971
915.326	0.00650195
915.496	0.00649435
915.666	0.00632881
915.837	0.0063641
916.007	0.00633906
916.177	0.00627763
916.348	0.00627793
916.518	0.00623983
916.688	0.00614876
916.858	0.00618576
917.029	0.00602811
917.199	0.0060095
917.369	0.00601059
917.539	0.00617384
917.709	0.0063511
917.88	0.006492
918.05	0.006673
918.22	0.00680844
918.39	0.00678982
918.56	0.00681229
918.73	0.00671698
918.9	0.00657542
919.07	0.00637949
919.24	0.00624798
919.41	0.00613475
919.58	0.00612812
919.75	0.0059861
919.92	0.0059008
920.09	0.00577437
920.26	0.00567773
920.429	0.00546334
920.599	0.00540901
920.769	0.00539148
920.939	0.005527
921.109	0.0055622
921.278	0.00574052
921.448	0.00585614
921.618	0.00593283
921.787	0.00607953
921.957	0.00608321
922.127	0.00604504
922.296	0.00590885
922.466	0.00584368
922.636	0.00588213
922.805	0.00593584
922.975	0.00575764
923.144	0.0055209
923.314	0.00557463
923.483	0.00558709
923.653	0.00553399
923.822	0.00550951
923.992	0.00541802
924.161	0.00540198
924.331	0.00559972
924.5	0.00532422
924.669	0.00536082
924.839	0.00531343
925.008	0.00533513
925.177	0.00526251
925.347	0.00538436
925.516	0.00535102
925.685	0.00550022
925.854	0.0055459
926.023	0.00545815
926.193	0.00533732
926.362	0.00539869
926.531	0.00525041
926.7	0.0050795
926.869	0.00496501
927.038	0.00489338
927.207	0.00494603
927.376	0.00493454
927.545	0.00490787
927.715	0.00490074
927.884	0.00496895
928.052	0.00502527
928.221	0.0050901
928.39	0.00503746
928.559	0.00500982
928.728	0.00492234
928.897	0.00492122
929.066	0.00490093
929.235	0.00487522
929.404	0.00481482
929.572	0.00477591
929.741	0.00463572
929.91	0.00457327
930.079	0.00458192
930.247	0.00459366
930.416	0.00463585
930.585	0.00452155
930.753	0.00458422
930.922	0.00456333
931.091	0.00460769
931.259	0.00454895
931.428	0.00452047
931.596	0.00414292
931.765	0.0042119
931.934	0.00414475
932.102	0.00419923
932.27	0.00432262
932.439	0.00432785
932.607	0.00434423
932.776	0.00467476
932.944	0.00443223
933.113	0.00454077
933.281	0.00470287
933.449	0.00475542
933.618	0.00477593
933.786	0.00484388
933.954	0.00483177
934.123	0.00501886
934.291	0.00508475
934.459	0.00491955
934.627	0.00470132
934.795	0.00477996
934.964	0.00460627
935.132	0.00474923
935.3	0.00485262
935.468	0.00475245
935.636	0.00485115
935.804	0.00508849
935.972	0.00511786
936.14	0.00529734
936.308	0.00528027
936.476	0.00536008
936.644	0.0054418
936.812	0.00567632
936.98	0.0058033
937.148	0.00583439
937.316	0.00598708
937.484	0.00604455
937.652	0.00586574
937.82	0.00575188
937.987	0.00576418
938.155	0.00574911
938.323	0.00575567
938.491	0.00556854
938.658	0.00564937
938.826	0.00560974
938.994	0.0060918
939.162	0.00554409
939.329	0.00507438
939.497	0.00496603
939.665	0.00547391
939.832	0.00558282
940	0.00568044
940.167	0.00577979
940.335	0.00614129
940.502	0.0067681
940.67	0.00717179
940.837	0.00699741
941.005	0.00717581
941.172	0.00731178
941.34	0.00730868
941.507	0.00782745
941.674	0.00816661
941.842	0.00814901
942.009	0.00885639
942.177	0.00841667
942.344	0.00883828
942.511	0.00859932
942.678	0.00845439
942.846	0.00815111
943.013	0.00853897
943.18	0.00841608
943.347	0.00829256
943.514	0.00894469
943.682	0.00938186
943.849	0.00892226
944.016	0.00972992
944.183	0.01023974
944.35	0.00994506
944.517	0.01092234
944.684	0.01177045
944.851	0.01089626
945.018	0.01199677
945.185	0.01173066
945.352	0.01137514
945.519	0.01152578
945.686	0.01080011
945.853	0.00995484
946.02	0.01039511
946.187	0.00987653
946.353	0.00926975
946.52	0.00929973
946.687	0.00895002
946.854	0.0094295
947.021	0.00827791
947.187	0.0084081
947.354	0.00831557
947.521	0.00790941
947.687	0.00767474
947.854	0.00797187
948.021	0.00812513
948.187	0.00876517
948.354	0.00865122
948.52	0.00869089
948.687	0.00919033
948.854	0.00926023
949.02	0.00956697
949.187	0.00862467
949.353	0.00870059
949.52	0.00913841
949.686	0.0094131
949.852	0.00903203
950.019	0.00875412
950.185	0.00865241
950.352	0.00875965
950.518	0.00808618
950.684	0.00729453
950.851	0.0073246
951.017	0.00747867
951.183	0.0073573
951.349	0.0064378
951.516	0.00651636
951.682	0.00686854
951.848	0.00699811
952.014	0.0061661
952.18	0.00563821
952.346	0.00614151
952.512	0.00691155
952.679	0.00646186
952.845	0.00618868
953.011	0.00629643
953.177	0.00691399
953.343	0.00642452
953.509	0.00590915
953.675	0.00514204
953.841	0.00458748
954.007	0.00478771
954.172	0.00485684
954.338	0.00457719
954.504	0.00489534
954.67	0.00505233
954.836	0.00494109
955.002	0.00607895
955.167	0.00576444
955.333	0.00519763
955.499	0.0053821
955.665	0.00554712
955.83	0.00516755
955.996	0.00543935
956.162	0.00538691
956.327	0.00603924
956.493	0.0064465
956.659	0.00588651
956.824	0.00588387
956.99	0.00605842
957.155	0.00580944
957.321	0.00587073
957.486	0.00527596
957.652	0.00518885
957.817	0.00541426
957.983	0.00522541
958.148	0.00520797
958.314	0.00545488
958.479	0.00526929
958.644	0.0052927
958.81	0.00538176
958.975	0.00517933
959.14	0.00498245
959.306	0.00501754
959.471	0.00488254
959.636	0.00407419
959.801	0.00393807
959.967	0.00352401
960.132	0.0034776
960.297	0.00348284
960.462	0.00314684
960.627	0.00297473
960.792	0.00360156
960.957	0.00347861
961.123	0.00358454
961.288	0.00381811
961.453	0.00410356
961.618	0.00411276
961.783	0.00408906
961.948	0.00372841
962.113	0.00386558
962.277	0.00369928
962.442	0.00352921
962.607	0.00324054
962.772	0.00346441
962.937	0.00377448
963.102	0.00423101
963.267	0.00427078
963.431	0.00416218
963.596	0.00406384
963.761	0.0042161
963.926	0.00400492
964.09	0.00361447
964.255	0.00329662
964.42	0.00349948
964.584	0.00379346
964.749	0.00361953
964.914	0.00397552
965.078	0.0041234
965.243	0.00454796
965.407	0.00517202
965.572	0.00499509
965.736	0.00525917
965.901	0.00530995
966.065	0.00505292
966.23	0.00526553
966.394	0.00492981
966.559	0.00417578
966.723	0.00388426
966.887	0.00340612
967.052	0.00338705
967.216	0.00333001
967.38	0.0029744
967.545	0.00313444
967.709	0.00289938
967.873	0.00282044
968.037	0.00304491
968.202	0.00309568
968.366	0.00294806
968.53	0.00307418
968.694	0.00298442
968.858	0.0034805
969.022	0.00356377
969.187	0.00331268
969.351	0.00353712
969.515	0.00360303
969.679	0.00355832
969.843	0.00358146
970.007	0.00325967
970.171	0.0033175
970.335	0.0033067
970.499	0.00305045
970.662	0.0030313
970.826	0.00271545
970.99	0.00261294
971.154	0.0030349
971.318	0.00327165
971.482	0.00360682
971.645	0.00362244
971.809	0.00373242
971.973	0.00413194
972.137	0.00416443
972.3	0.00411512
972.464	0.00391592
972.628	0.00390044
972.791	0.00404246
972.955	0.00408714
973.119	0.00391552
973.282	0.00400688
973.446	0.00406676
973.609	0.00397292
973.773	0.00378774
973.936	0.00414963
974.1	0.00375996
974.263	0.00364109
974.427	0.00362546
974.59	0.00338145
974.754	0.00325547
974.917	0.00371485
975.08	0.00312144
975.244	0.00349297
975.407	0.00382818
975.57	0.00353183
975.734	0.00367359
975.897	0.00412737
976.06	0.00368986
976.223	0.00382912
976.387	0.00415648
976.55	0.00386145
976.713	0.00418005
976.876	0.00372979
977.039	0.00323113
977.202	0.00314001
977.365	0.00309679
977.528	0.00264927
977.692	0.00242537
977.855	0.00235963
978.018	0.00256613
978.181	0.00295014
978.344	0.00316982
978.506	0.00335472
978.669	0.00314218
978.832	0.00345991
978.995	0.00314016
979.158	0.00284796
979.321	0.00254756
979.484	0.00221062
979.646	0.00246897
979.809	0.00256005
979.972	0.00236718
980.135	0.00266514
980.297	0.0029494
980.46	0.00275508
980.623	0.00288649
980.786	0.00230479
980.948	0.00217632
981.111	0.00253845
981.273	0.00244657
981.436	0.00244011
981.599	0.00273149
981.761	0.00261196
981.924	0.00286842
982.086	0.00350517
982.249	0.00369403
982.411	0.00374924
982.573	0.00400597
982.736	0.00428266
982.898	0.00443895
983.061	0.00464709
983.223	0.00444495
983.385	0.00373598
983.548	0.00415942
983.71	0.00452442
983.872	0.00465133
984.034	0.00459564
984.197	0.00430421
984.359	0.00418368
984.521	0.00459612
984.683	0.00393175
984.845	0.00351858
985.008	0.00305108
985.17	0.00345172
985.332	0.00336952
985.494	0.00313951
985.656	0.00291913
985.818	0.00346351
985.98	0.00348467
986.142	0.0041696
986.304	0.00372905
986.466	0.00376556
986.628	0.00392843
986.79	0.00403661
986.952	0.00463751
987.113	0.00415302
987.275	0.00375333
987.437	0.00392216
987.599	0.00386453
987.761	0.00425345
987.922	0.00431539
988.084	0.0037569
988.246	0.00403138
988.408	0.0040313
988.569	0.00412191
988.731	0.00439827
988.893	0.00400522
989.054	0.00388475
989.216	0.00360909
989.377	0.00366416
989.539	0.00365492
989.701	0.00360108
989.862	0.00330234
990.024	0.00320786
990.185	0.00333574
990.347	0.00264033
990.508	0.00299468
990.669	0.0030772
990.831	0.00292327
990.992	0.00320391
991.154	0.00308807
991.315	0.00321
991.476	0.00382907
991.638	0.00299102
991.799	0.00313749
991.96	0.00322656
992.121	0.00333502
992.283	0.00376416
992.444	0.00406795
992.605	0.00422392
992.766	0.00479756
992.927	0.00437192
993.088	0.00451543
993.249	0.00410759
993.41	0.00436723
993.572	0.00422184
993.733	0.00353416
993.894	0.00409322
994.055	0.00354375
994.216	0.00359041
994.376	0.0032106
994.537	0.0025676
994.698	0.00217801
994.859	0.00244442
995.02	0.00130054
995.181	0.00206519
995.342	0.00222162
995.503	0.00247174
995.663	0.0024042
995.824	0.00255662
995.985	0.0028946
996.146	0.00373815
996.306	0.00400652
996.467	0.00403188
996.628	0.00455184
996.788	0.00518935
996.949	0.00517525
997.11	0.00560228
997.27	0.00477319
997.431	0.00474866
997.591	0.00431514
997.752	0.00399996
997.912	0.00361399
998.073	0.0038066
998.233	0.00337952
998.394	0.00477808
998.554	0.00481911
998.714	0.00524017
998.875	0.00552279
999.035	0.00533668
999.196	0.0045986
999.356	0.00505214
999.516	0.00371017
999.676	0.00335078
999.837	0.00325875
999.997	0.00314588
1000.157	0.00349786
1000.317	0.00362593
1000.477	0.00343275
1000.638	0.00322052
1000.798	0.0029226
1000.958	0.00334568
1001.118	0.00397229
1001.278	0.00347131
1001.438	0.00344782
1001.598	0.0032248
1001.758	0.00379035
1001.918	0.00431653
1002.078	0.00385376
1002.238	0.00375289
1002.398	0.00464087
1002.558	0.00545455
1002.718	0.00515302
1002.878	0.00491488
1003.037	0.00420342
1003.197	0.00463949
1003.357	0.0048057
1003.517	0.00407492
1003.677	0.00403106
1003.836	0.00448165
1003.996	0.00539834
1004.156	0.00621716
1004.315	0.00570952
1004.475	0.00482317
1004.635	0.00557013
1004.794	0.00453661
1004.954	0.0046689
1005.114	0.00422405
1005.273	0.00419854
1005.433	0.00369947
1005.592	0.00367491
1005.752	0.00288334
1005.911	0.00302775
1006.071	0.00169749
1006.23	0.00222116
1006.389	0.00286937
1006.549	0.00351564
1006.708	0.00430575
1006.868	0.00476209
1007.027	0.00643797
1007.186	0.00751945
1007.345	0.00803734
1007.505	0.00709107
1007.664	0.00666935
1007.823	0.00599955
1007.982	0.00640529
1008.142	0.00593575
1008.301	0.00650001
1008.46	0.00553134
1008.619	0.00573595
1008.778	0.00579332
1008.937	0.00748695
1009.096	0.00791462
1009.255	0.00783237
1009.414	0.00798876
1009.573	0.00779089
1009.732	0.00804543
1009.891	0.00741643
1010.05	0.00634805
1010.209	0.00581279
1010.368	0.00621135
1010.527	0.00474299
1010.686	0.00571331
1010.845	0.00686703
1011.003	0.00656397
1011.162	0.00635521
1011.321	0.00777243
1011.48	0.00863359
1011.638	0.00921759
1011.797	0.00760922
1011.956	0.00581844
1012.115	0.00766696
1012.273	0.00809913
1012.432	0.00688451
1012.59	0.00636643
1012.749	0.00707584
1012.908	0.00856749
1013.066	0.00771553
1013.225	0.00576409
1013.383	0.00504827
1013.542	0.00460445
1013.7	0.00394966
1013.859	0.00210098
1014.017	0.00109818
1014.175	0.00173919
1014.334	0.00224521
1014.492	0.00343371
1014.65	0.003776
1014.809	0.00424445
1014.967	0.00713977
1015.125	0.00807129
1015.284	0.00875441
1015.442	0.00925766
1015.6	0.00872046
1015.758	0.00769396
1015.916	0.0060653
1016.075	0.00535079
1016.233	0.00491119
1016.391	0.005842
1016.549	0.00607213
1016.707	0.00530883
1016.865	0.00471213
1017.023	0.00433995
1017.181	0.00386137
1017.339	0.00465685
1017.497	0.00450577
1017.655	0.00626231
1017.813	0.00628907
1017.971	0.00748163
1018.129	0.00884641
1018.286	0.00957207
1018.444	0.00871496
1018.602	0.00715074
1018.76	0.00713201
1018.918	0.00829254
1019.075	0.00803694
1019.233	0.00845054
1019.391	0.00919979
1019.549	0.01199003
1019.706	0.01481673
1019.864	0.01459361
1020.022	0.01314639
1020.179	0.01205733
1020.337	0.01103135
1020.494	0.00976971
1020.652	0.00833639
1020.809	0.00898037
1020.967	0.00766212
1021.124	0.00879674
1021.282	0.01173467
1021.439	0.01206543
1021.597	0.01220883
1021.754	0.01181458
1021.911	0.00973062
1022.069	0.00901473
1022.226	0.00960328
1022.384	0.0065448
1022.541	0.00617582
1022.698	0.00870756
1022.855	0.00804953
1023.013	0.0077848
1023.17	0.00668658
1023.327	0.00343069
1023.484	0.00565326
1023.641	0.007086
1023.798	0.00069067
1023.956	0.00053365
1024.113	0.00131708
1024.27	0.00077008
1024.427	0.00450305
1024.584	0.00593533
1024.741	0.00681159
1024.898	0.00708365
1025.055	0.00624925
1025.212	0.00945751
1025.369	0.01157565
1025.525	0.01154816
1025.682	0.01265624
1025.839	0.01325377
1025.996	0.0168612
1026.153	0.01645755
1026.31	0.01056206
1026.466	0.01154379
1026.623	0.01386384
1026.78	0.01294499
1026.937	0.01043831
1027.093	0.01118952
1027.25	0.01391525
1027.407	0.01835844
1027.563	0.01682904
1027.72	0.01400239
1027.876	0.01648337
1028.033	0.02100259
1028.19	0.01657274
1028.346	0.01375915
1028.503	0.01468059
1028.659	0.01772859
1028.816	0.01871716
1028.972	0.01978821
1029.128	0.02013972
1029.285	0.02722042
1029.441	0.02678896
1029.598	0.02352197
1029.754	0.02420748
1029.91	0.02085203
1030.067	0.01720533
1030.223	0.01542436
1030.379	0.01358316
1030.535	0.01494065
1030.691	0.01852185
1030.848	0.01572357
1031.004	0.0173822
1031.16	0.02037285
1031.316	0.01754432
1031.472	0.01778038
1031.628	0.02030215
1031.784	0.02044103
1031.94	0.02606962
1032.096	0.03278932
1032.252	0.03150942
1032.408	0.03498083
1032.564	0.0317266
1032.72	0.0356758
1032.876	0.03561772
1033.032	0.03397803
1033.188	0.0292052
1033.344	0.03094135
1033.5	0.03321733
1033.655	0.0378094
1033.811	0.03772987
1033.967	0.03989498
