Data from 1_mm_pl_20pc_Absorbance__0__16-58-50-621.txt Node

Date: Wed Mar 08 16:58:50 CET 2023
User: Ange
Spectrometer: FLMT08341
Trigger mode: 0
Integration Time (sec): 1.000000E-2
Scans to average: 400
Electric dark correction enabled: true
Nonlinearity correction enabled: false
Boxcar width: 3
XAxis mode: Wavelengths
Number of Pixels in Spectrum: 3648
>>>>>Begin Spectral Data<<<<<
345.271	0.0390293
345.487	0.0287998
345.704	0.02360032
345.921	0.02620207
346.137	0.03845589
346.354	0.02901936
346.571	0.04438792
346.787	0.00420694
347.004	-0.0594455
347.22	-0.01011446
347.437	0.13093378
347.653	0.49785041
347.87	-0.36079644
348.086	-0.46915996
348.303	-0.06536776
348.519	0.35020302
348.736	0.34166438
348.952	0.34096184
349.169	0.3531968
349.385	0.36482015
349.601	0.36348059
349.818	0.35495158
350.034	0.3503798
350.251	0.34842726
350.467	0.3535271
350.683	0.3413624
350.9	0.34249265
351.116	0.33777027
351.332	0.33737258
351.549	0.35031456
351.765	0.36197449
351.981	0.37111407
352.197	0.38806092
352.414	0.40087649
352.63	0.41315023
352.846	0.4246801
353.062	0.4153464
353.278	0.40921697
353.495	0.41542767
353.711	0.41797976
353.927	0.41869391
354.143	0.41991507
354.359	0.41639225
354.575	0.41968767
354.792	0.43218473
355.008	0.42369481
355.224	0.4181935
355.44	0.41463039
355.656	0.4116729
355.872	0.41828759
356.088	0.44120153
356.304	0.44444764
356.52	0.45166274
356.736	0.46170212
356.952	0.4721538
357.168	0.47709235
357.384	0.48633046
357.6	0.47052202
357.816	0.4761257
358.032	0.48420027
358.248	0.49557355
358.464	0.49562982
358.679	0.50335366
358.895	0.50424374
359.111	0.51584926
359.327	0.50974994
359.543	0.51218627
359.759	0.5198186
359.974	0.52321913
360.19	0.52190229
360.406	0.52633342
360.622	0.52024055
360.838	0.51984495
361.053	0.52476094
361.269	0.52343244
361.485	0.52456862
361.701	0.53069902
361.916	0.52173817
362.132	0.52707161
362.348	0.53438534
362.563	0.53710031
362.779	0.53393678
362.995	0.54061199
363.21	0.54672082
363.426	0.55291219
363.641	0.55638331
363.857	0.55874964
364.073	0.55526803
364.288	0.55494482
364.504	0.56531476
364.719	0.56485418
364.935	0.56623398
365.15	0.56993946
365.366	0.57230298
365.581	0.58196465
365.797	0.586008
366.012	0.580127
366.228	0.57591475
366.443	0.58801128
366.658	0.58768123
366.874	0.58472703
367.089	0.59047243
367.305	0.5959505
367.52	0.59993097
367.735	0.6055365
367.951	0.59976415
368.166	0.60651536
368.381	0.6226656
368.597	0.61984748
368.812	0.6250048
369.027	0.62817691
369.243	0.63280358
369.458	0.65135246
369.673	0.65521676
369.888	0.65399783
370.104	0.65174148
370.319	0.65748662
370.534	0.65424467
370.749	0.65358916
370.964	0.65302256
371.179	0.65315429
371.395	0.65133401
371.61	0.66092955
371.825	0.65009103
372.04	0.65698694
372.255	0.65645435
372.47	0.6497984
372.685	0.64591368
372.9	0.64461214
373.115	0.63927263
373.33	0.65123895
373.545	0.65384742
373.76	0.65994942
373.975	0.66130319
374.19	0.66261102
374.405	0.66948264
374.62	0.68272322
374.835	0.68952908
375.05	0.68917398
375.265	0.69234218
375.48	0.69602103
375.695	0.71260234
375.91	0.70842535
376.125	0.69660556
376.339	0.68774774
376.554	0.69090617
376.769	0.69566654
376.984	0.69723504
377.199	0.69824189
377.414	0.70146782
377.628	0.71544764
377.843	0.72317899
378.058	0.72925148
378.273	0.73404332
378.487	0.7395899
378.702	0.74143936
378.917	0.74650186
379.131	0.74060666
379.346	0.73459702
379.561	0.73196834
379.775	0.7286174
379.99	0.72280708
380.205	0.7162835
380.419	0.71241778
380.634	0.7076962
380.848	0.71645681
381.063	0.71920885
381.278	0.72790228
381.492	0.72763102
381.707	0.74010502
381.921	0.74221916
382.136	0.75668616
382.35	0.75300982
382.565	0.75199182
382.779	0.75226996
382.994	0.75931262
383.208	0.75204797
383.422	0.76330989
383.637	0.76129099
383.851	0.77149385
384.066	0.778453
384.28	0.78199758
384.494	0.78653761
384.709	0.7922642
384.923	0.793235
385.137	0.78988791
385.352	0.78971695
385.566	0.79454574
385.78	0.79390558
385.995	0.79148052
386.209	0.79068858
386.423	0.79540907
386.637	0.80292156
386.852	0.79885308
387.066	0.79807699
387.28	0.79576899
387.494	0.80445475
387.708	0.80789511
387.923	0.80642338
388.137	0.81232015
388.351	0.81985174
388.565	0.82503711
388.779	0.83225968
388.993	0.8439068
389.207	0.8480694
389.421	0.85306759
389.635	0.84798797
389.85	0.84881977
390.064	0.84976691
390.278	0.85269301
390.492	0.85003627
390.706	0.85296103
390.92	0.85414673
391.134	0.86434919
391.348	0.87745419
391.561	0.87635629
391.775	0.87518514
391.989	0.87038978
392.203	0.87432501
392.417	0.87803986
392.631	0.88488201
392.845	0.87647733
393.059	0.88542944
393.273	0.88608179
393.486	0.88370868
393.7	0.87790455
393.914	0.88306851
394.128	0.87873618
394.342	0.88014919
394.555	0.87151526
394.769	0.8749011
394.983	0.88355845
395.197	0.89098578
395.41	0.89021993
395.624	0.89585086
395.838	0.89649973
396.051	0.91336491
396.265	0.91118679
396.479	0.912236
396.692	0.91497036
396.906	0.91352766
397.12	0.91126837
397.333	0.91997239
397.547	0.91437719
397.76	0.92194786
397.974	0.92475065
398.187	0.92943625
398.401	0.9354296
398.614	0.93974141
398.828	0.94105662
399.041	0.9443055
399.255	0.94474221
399.468	0.94476845
399.682	0.94400241
399.895	0.94704744
400.109	0.94679309
400.322	0.94463066
400.536	0.94114491
400.749	0.94818476
400.962	0.95117514
401.176	0.94917001
401.389	0.94742222
401.602	0.94104113
401.816	0.94492995
402.029	0.9527534
402.242	0.94925724
402.456	0.94959206
402.669	0.94765828
402.882	0.94173973
403.095	0.95291274
403.309	0.95259196
403.522	0.95245514
403.735	0.95281025
403.948	0.95350973
404.161	0.97002177
404.375	0.97614287
404.588	0.97651409
404.801	0.97923042
405.014	0.97597499
405.227	0.98412141
405.44	0.98824074
405.653	0.98521197
405.866	0.982669
406.079	0.98118826
406.293	0.98076592
406.506	0.9837093
406.719	0.9799133
406.932	0.97845251
407.145	0.97254497
407.358	0.98182586
407.571	0.97880777
407.784	0.98013151
407.996	0.98252466
408.209	0.97838993
408.422	0.97671315
408.635	0.97981465
408.848	0.97877201
409.061	0.97604102
409.274	0.97592495
409.487	0.97370707
409.7	0.97718731
409.912	0.98133238
410.125	0.98076947
410.338	0.97948036
410.551	0.98153113
410.764	0.98318707
410.976	0.98494501
411.189	0.98555555
411.402	0.98176821
411.615	0.98538492
411.827	0.98701551
412.04	0.98928079
412.253	0.98638849
412.465	0.98441943
412.678	0.9825081
412.891	0.98686701
413.103	0.97777642
413.316	0.97594975
413.529	0.98029332
413.741	0.984001
413.954	0.98640537
414.166	0.98721225
414.379	0.98400597
414.591	0.99029596
414.804	0.98728432
415.016	0.98355919
415.229	0.97992598
415.441	0.97466475
415.654	0.97543115
415.866	0.97604252
416.079	0.97660871
416.291	0.97667906
416.504	0.98036639
416.716	0.98153108
416.928	0.9842199
417.141	0.98243075
417.353	0.98337674
417.566	0.97715718
417.778	0.97757791
417.99	0.96906602
418.203	0.96434491
418.415	0.96324423
418.627	0.96313039
418.839	0.96084416
419.052	0.96729909
419.264	0.96674041
419.476	0.96915274
419.688	0.97154095
419.901	0.97028837
420.113	0.96747351
420.325	0.96382849
420.537	0.95677737
420.749	0.95800808
420.961	0.95728472
421.174	0.95524173
421.386	0.95205993
421.598	0.95111738
421.81	0.95048575
422.022	0.94899059
422.234	0.94542341
422.446	0.94270403
422.658	0.9399755
422.87	0.94036262
423.082	0.93921203
423.294	0.93755828
423.506	0.93753439
423.718	0.93542229
423.93	0.93168855
424.142	0.9284348
424.354	0.924556
424.566	0.92168982
424.778	0.92028967
424.99	0.91775961
425.202	0.91383241
425.414	0.91318668
425.625	0.91343973
425.837	0.91006528
426.049	0.90982768
426.261	0.90660477
426.473	0.90236196
426.684	0.90107115
426.896	0.90057057
427.108	0.89674442
427.32	0.89695355
427.531	0.89246437
427.743	0.89087737
427.955	0.89264431
428.167	0.88949077
428.378	0.8857391
428.59	0.8833811
428.802	0.88045242
429.013	0.87767521
429.225	0.8735635
429.436	0.86878845
429.648	0.86779645
429.86	0.86678223
430.071	0.86547533
430.283	0.86288751
430.494	0.86020756
430.706	0.85885457
430.917	0.85505123
431.129	0.85238702
431.34	0.8482289
431.552	0.84588152
431.763	0.8423712
431.975	0.84115018
432.186	0.83636963
432.398	0.83433214
432.609	0.82825455
432.821	0.82609247
433.032	0.82216983
433.243	0.81850877
433.455	0.81464325
433.666	0.81302609
433.877	0.81122031
434.089	0.80797667
434.3	0.80290002
434.511	0.79774267
434.723	0.7950643
434.934	0.79046234
435.145	0.78495566
435.356	0.77932648
435.568	0.77722619
435.779	0.77383702
435.99	0.76998987
436.201	0.76574953
436.412	0.76251638
436.624	0.76157647
436.835	0.75995632
437.046	0.75776976
437.257	0.75484731
437.468	0.75439733
437.679	0.75248545
437.89	0.74963988
438.101	0.7464593
438.312	0.74295443
438.523	0.73880984
438.734	0.73597143
438.945	0.73195171
439.156	0.7270075
439.367	0.72388913
439.578	0.72092244
439.789	0.71625893
440	0.71348609
440.211	0.70922671
440.422	0.70616697
440.633	0.70444238
440.844	0.70003162
441.055	0.69520174
441.266	0.69322197
441.477	0.68850201
441.687	0.68561471
441.898	0.68195932
442.109	0.67701212
442.32	0.67378333
442.531	0.669726
442.741	0.6637083
442.952	0.6601349
443.163	0.65632441
443.374	0.65194995
443.584	0.6484563
443.795	0.6449831
444.006	0.64157584
444.216	0.63869842
444.427	0.63455365
444.638	0.63045923
444.848	0.62673639
445.059	0.6230413
445.27	0.61905864
445.48	0.61490736
445.691	0.61147519
445.901	0.60832885
446.112	0.60489565
446.323	0.60059102
446.533	0.59650384
446.744	0.59238664
446.954	0.58874757
447.165	0.58483366
447.375	0.58182188
447.586	0.57870892
447.796	0.57604337
448.006	0.57276799
448.217	0.56992622
448.427	0.56645353
448.638	0.56249146
448.848	0.55804837
449.058	0.55369784
449.269	0.54976687
449.479	0.54611399
449.689	0.54212489
449.9	0.53872132
450.11	0.53526711
450.32	0.53262292
450.531	0.52894712
450.741	0.52502409
450.951	0.52156216
451.161	0.51801687
451.372	0.51459355
451.582	0.5124853
451.792	0.50832207
452.002	0.50501738
452.212	0.50134274
452.422	0.49807866
452.633	0.49431598
452.843	0.49111271
453.053	0.48612587
453.263	0.48300156
453.473	0.4793332
453.683	0.47666947
453.893	0.47277919
454.103	0.47013886
454.313	0.46658749
454.523	0.46357637
454.733	0.46020266
454.943	0.45746212
455.153	0.45419854
455.363	0.45111757
455.573	0.44746045
455.783	0.44454265
455.993	0.44127763
456.203	0.43846315
456.413	0.43551571
456.623	0.43228594
456.833	0.42983383
457.042	0.42686917
457.252	0.4237086
457.462	0.42052903
457.672	0.41739444
457.882	0.41414646
458.091	0.41099961
458.301	0.40740431
458.511	0.40452279
458.721	0.40156831
458.931	0.39891799
459.14	0.39625402
459.35	0.39368056
459.56	0.39126708
459.769	0.38898873
459.979	0.38610427
460.189	0.38345568
460.398	0.38048373
460.608	0.37791887
460.817	0.37523532
461.027	0.3724945
461.237	0.36966223
461.446	0.36722143
461.656	0.36484238
461.865	0.36237772
462.075	0.35981251
462.284	0.35735451
462.494	0.35455422
462.703	0.35186615
462.913	0.34939379
463.122	0.34668832
463.332	0.34429397
463.541	0.34194853
463.751	0.33940148
463.96	0.33727027
464.169	0.33507304
464.379	0.33287026
464.588	0.33065561
464.797	0.32854126
465.007	0.3262743
465.216	0.32424729
465.425	0.32226326
465.635	0.32024985
465.844	0.31818849
466.053	0.31621129
466.263	0.31412466
466.472	0.31203012
466.681	0.3099718
466.89	0.30782085
467.099	0.30582134
467.309	0.30382436
467.518	0.30201717
467.727	0.30016132
467.936	0.29830339
468.145	0.29660072
468.354	0.29500873
468.563	0.2931867
468.772	0.29131783
468.982	0.28945896
469.191	0.28790718
469.4	0.28614472
469.609	0.28434259
469.818	0.28270383
470.027	0.28101378
470.236	0.27939344
470.445	0.27785241
470.654	0.27604236
470.863	0.27434633
471.072	0.27287194
471.28	0.27107057
471.489	0.26972822
471.698	0.2683751
471.907	0.26684245
472.116	0.26559686
472.325	0.26442791
472.534	0.26317617
472.743	0.26189798
472.951	0.26056515
473.16	0.25934592
473.369	0.25810712
473.578	0.25687152
473.786	0.25561339
473.995	0.25426384
474.204	0.25328709
474.413	0.25203133
474.621	0.25085669
474.83	0.24993324
475.039	0.24882563
475.247	0.2476809
475.456	0.24662836
475.665	0.24543496
475.873	0.24437898
476.082	0.24297815
476.291	0.24178146
476.499	0.24082224
476.708	0.239719
476.916	0.23882301
477.125	0.23788944
477.333	0.23701158
477.542	0.23636918
477.75	0.23537183
477.959	0.23446095
478.167	0.23384523
478.376	0.23293748
478.584	0.23207878
478.793	0.23127156
479.001	0.23048992
479.209	0.22986099
479.418	0.22910314
479.626	0.22832843
479.834	0.2276596
480.043	0.22704837
480.251	0.22639569
480.459	0.22569516
480.668	0.22517103
480.876	0.22456984
481.084	0.22394309
481.293	0.22340532
481.501	0.22280431
481.709	0.22238565
481.917	0.22199469
482.125	0.22155444
482.334	0.22115172
482.542	0.22083994
482.75	0.22043209
482.958	0.22014218
483.166	0.2196987
483.374	0.21927329
483.583	0.21886567
483.791	0.21849453
483.999	0.21798048
484.207	0.21767793
484.415	0.21735233
484.623	0.21695096
484.831	0.21657265
485.039	0.21629475
485.247	0.21600513
485.455	0.21577569
485.663	0.21548417
485.871	0.21529737
486.079	0.21509932
486.287	0.21497527
486.495	0.21471415
486.702	0.21444762
486.91	0.21423865
487.118	0.21399274
487.326	0.21376167
487.534	0.2137029
487.742	0.21365821
487.95	0.21365021
488.157	0.21359386
488.365	0.21358095
488.573	0.21360273
488.781	0.21364393
488.988	0.21366035
489.196	0.21366552
489.404	0.21366145
489.612	0.21377157
489.819	0.21394865
490.027	0.21403371
490.235	0.21403128
490.442	0.21410944
490.65	0.21414651
490.857	0.21430664
491.065	0.21443603
491.273	0.21457578
491.48	0.21477953
491.688	0.21498702
491.895	0.21522393
492.103	0.21545348
492.31	0.21566095
492.518	0.21582206
492.725	0.216014
492.933	0.21617493
493.14	0.21641926
493.348	0.21661851
493.555	0.21692907
493.763	0.21717287
493.97	0.21759244
494.177	0.2179308
494.385	0.21836563
494.592	0.21873118
494.8	0.21903461
495.007	0.21939359
495.214	0.21977587
495.422	0.22017702
495.629	0.22054905
495.836	0.22091016
496.043	0.22135631
496.251	0.22187467
496.458	0.22230845
496.665	0.22274368
496.872	0.22312068
497.08	0.22356432
497.287	0.2239658
497.494	0.22438533
497.701	0.22479586
497.908	0.22530419
498.115	0.22571501
498.322	0.22624613
498.53	0.22674216
498.737	0.22725782
498.944	0.22777279
499.151	0.22833364
499.358	0.22883812
499.565	0.22945181
499.772	0.22996291
499.979	0.23058161
500.186	0.23122566
500.393	0.23181615
500.6	0.2323845
500.807	0.23306188
501.014	0.23378033
501.221	0.23448444
501.427	0.2351486
501.634	0.23588379
501.841	0.23660493
502.048	0.2373068
502.255	0.2378359
502.462	0.23842046
502.669	0.23908462
502.875	0.23973715
503.082	0.24027534
503.289	0.24082076
503.496	0.24146403
503.702	0.24219079
503.909	0.24291036
504.116	0.24363126
504.323	0.24435501
504.529	0.24513369
504.736	0.24593921
504.943	0.24673483
505.149	0.2475871
505.356	0.24851356
505.563	0.24939251
505.769	0.25027104
505.976	0.25116589
506.182	0.25214278
506.389	0.2530174
506.595	0.25392981
506.802	0.25473322
507.008	0.25552661
507.215	0.25629902
507.421	0.25713527
507.628	0.25792592
507.834	0.2588359
508.041	0.25965425
508.247	0.26050623
508.454	0.26140502
508.66	0.26234412
508.866	0.26318853
509.073	0.26419373
509.279	0.26509975
509.486	0.26598809
509.692	0.26692198
509.898	0.26784446
510.105	0.26881348
510.311	0.26988274
510.517	0.27072442
510.723	0.27162456
510.93	0.27256284
511.136	0.27352231
511.342	0.27449809
511.548	0.27540231
511.754	0.27631889
511.961	0.27729647
512.167	0.27829734
512.373	0.2793756
512.579	0.28044602
512.785	0.28144956
512.991	0.28254807
513.197	0.28361521
513.404	0.28478916
513.61	0.28595435
513.816	0.2870109
514.022	0.28804355
514.228	0.28914445
514.434	0.29023826
514.64	0.29135216
514.846	0.29239696
515.052	0.29337069
515.258	0.29442358
515.464	0.29554791
515.669	0.29671484
515.875	0.29786934
516.081	0.29899737
516.287	0.30023922
516.493	0.30159068
516.699	0.30279941
516.905	0.30392736
517.111	0.30503739
517.316	0.30617336
517.522	0.30732618
517.728	0.30848141
517.934	0.30962349
518.139	0.31075128
518.345	0.31197612
518.551	0.31322971
518.757	0.31431251
518.962	0.3155186
519.168	0.31669175
519.374	0.31783241
519.579	0.3190567
519.785	0.32036534
519.991	0.32160244
520.196	0.32295969
520.402	0.32420922
520.607	0.32543606
520.813	0.32674005
521.018	0.32799578
521.224	0.32905074
521.429	0.3302915
521.635	0.33150302
521.84	0.33262207
522.046	0.33389549
522.251	0.33507749
522.457	0.33635805
522.662	0.33784557
522.868	0.33916916
523.073	0.34045995
523.279	0.34190481
523.484	0.3432415
523.689	0.34461022
523.895	0.34600436
524.1	0.34727775
524.305	0.3485618
524.511	0.34990879
524.716	0.35126029
524.921	0.35252542
525.126	0.3538435
525.332	0.35518352
525.537	0.35641276
525.742	0.35775745
525.947	0.35908362
526.153	0.36033862
526.358	0.36170171
526.563	0.3630512
526.768	0.36440004
526.973	0.36586253
527.178	0.36723387
527.383	0.36861628
527.588	0.36998819
527.794	0.3713039
527.999	0.372733
528.204	0.37406472
528.409	0.37536294
528.614	0.37685953
528.819	0.37827641
529.024	0.3796277
529.229	0.38097253
529.434	0.38235568
529.639	0.38375967
529.843	0.38519489
530.048	0.38656179
530.253	0.38799219
530.458	0.38957205
530.663	0.39109967
530.868	0.39256688
531.073	0.39397942
531.278	0.39537205
531.482	0.39667555
531.687	0.398089
531.892	0.39944015
532.097	0.40082333
532.302	0.40229818
532.506	0.40371351
532.711	0.40519216
532.916	0.40676403
533.12	0.40817177
533.325	0.40960459
533.53	0.41116968
533.734	0.41263185
533.939	0.41421175
534.144	0.41578903
534.348	0.41730983
534.553	0.41897604
534.757	0.42058124
534.962	0.4221131
535.167	0.42365698
535.371	0.42503112
535.576	0.42653418
535.78	0.42791643
535.985	0.42939815
536.189	0.43075334
536.394	0.43222479
536.598	0.43370672
536.803	0.43531052
537.007	0.43672804
537.211	0.43832602
537.416	0.43972499
537.62	0.44128118
537.825	0.44276174
538.029	0.44435757
538.233	0.4458489
538.438	0.44744768
538.642	0.44904702
538.846	0.45073877
539.05	0.45230174
539.255	0.45381087
539.459	0.45528444
539.663	0.45679837
539.867	0.45833008
540.072	0.45983685
540.276	0.46132677
540.48	0.46307847
540.684	0.4647052
540.888	0.4664056
541.092	0.46797593
541.297	0.46951183
541.501	0.47101004
541.705	0.47255783
541.909	0.47391739
542.113	0.47533706
542.317	0.47680831
542.521	0.47839561
542.725	0.47996751
542.929	0.48153449
543.133	0.48304873
543.337	0.48463823
543.541	0.48625665
543.745	0.48765565
543.949	0.48918084
544.153	0.49066472
544.357	0.49212047
544.56	0.49367653
544.764	0.49523682
544.968	0.49673242
545.172	0.49832205
545.376	0.50000321
545.58	0.50168383
545.783	0.50341092
545.987	0.50494113
546.191	0.50643124
546.395	0.50812113
546.598	0.50985099
546.802	0.51150766
547.006	0.51313042
547.21	0.51452019
547.413	0.51614183
547.617	0.51780607
547.821	0.51940441
548.024	0.52097952
548.228	0.52237537
548.431	0.52390855
548.635	0.52553083
548.839	0.52707832
549.042	0.52872295
549.246	0.53014754
549.449	0.53166002
549.653	0.53329423
549.856	0.53485173
550.06	0.53642007
550.263	0.53812219
550.467	0.53974728
550.67	0.54146415
550.874	0.54302176
551.077	0.54468044
551.28	0.54632124
551.484	0.54801122
551.687	0.54951456
551.891	0.55109651
552.094	0.55270379
552.297	0.55439875
552.501	0.5560086
552.704	0.55763547
552.907	0.55914306
553.11	0.56067298
553.314	0.56215042
553.517	0.56348428
553.72	0.56501519
553.923	0.56654918
554.127	0.56814732
554.33	0.5696684
554.533	0.57126983
554.736	0.57270807
554.939	0.57438088
555.142	0.57597
555.345	0.5775435
555.549	0.57912716
555.752	0.58069659
555.955	0.58222598
556.158	0.58397171
556.361	0.58550292
556.564	0.58701985
556.767	0.58853252
556.97	0.59003139
557.173	0.59162813
557.376	0.59322863
557.579	0.59466711
557.782	0.5962172
557.984	0.5978605
558.187	0.59943803
558.39	0.6009308
558.593	0.60251215
558.796	0.60400956
558.999	0.60548579
559.202	0.60701787
559.404	0.60829395
559.607	0.60975301
559.81	0.61133412
560.013	0.61282579
560.216	0.61439525
560.418	0.61604791
560.621	0.61761441
560.824	0.61925644
561.026	0.62077875
561.229	0.62218669
561.432	0.62364352
561.634	0.62508706
561.837	0.62645064
562.04	0.62783465
562.242	0.6292806
562.445	0.63070317
562.647	0.63220661
562.85	0.63356936
563.053	0.63495098
563.255	0.63637383
563.458	0.63787064
563.66	0.63929916
563.863	0.64091528
564.065	0.64243735
564.268	0.64395298
564.47	0.64548826
564.672	0.64695358
564.875	0.64839962
565.077	0.6498472
565.28	0.65112304
565.482	0.65261236
565.684	0.65405634
565.887	0.6555265
566.089	0.65708744
566.291	0.65847587
566.494	0.65999423
566.696	0.66154654
566.898	0.66301024
567.1	0.66452
567.303	0.66597047
567.505	0.66729819
567.707	0.66868087
567.909	0.66989677
568.111	0.67111016
568.314	0.67240477
568.516	0.67373494
568.718	0.67506704
568.92	0.67653932
569.122	0.67795584
569.324	0.6795099
569.526	0.68087618
569.728	0.68236687
569.93	0.68377752
570.132	0.68510535
570.334	0.68636356
570.536	0.68760301
570.738	0.68883905
570.94	0.6901633
571.142	0.69148632
571.344	0.69267038
571.546	0.69387715
571.748	0.6952957
571.95	0.69657523
572.152	0.69784709
572.354	0.69911394
572.555	0.70045121
572.757	0.70188278
572.959	0.70321362
573.161	0.7042745
573.363	0.70564214
573.564	0.70717405
573.766	0.70841391
573.968	0.70958057
574.17	0.7105607
574.371	0.711948
574.573	0.71322243
574.775	0.71433961
574.976	0.71534444
575.178	0.71653567
575.38	0.71757789
575.581	0.71872697
575.783	0.71979289
575.985	0.72097859
576.186	0.7223889
576.388	0.72362722
576.589	0.72476701
576.791	0.72611196
576.992	0.72744032
577.194	0.72859496
577.395	0.72962634
577.597	0.73055854
577.798	0.73166349
578	0.73283501
578.201	0.73395509
578.402	0.73504742
578.604	0.73606546
578.805	0.73733768
579.007	0.73857308
579.208	0.73964148
579.409	0.74074776
579.611	0.74164463
579.812	0.74280497
580.013	0.74387503
580.215	0.74458827
580.416	0.74550843
580.617	0.74644064
580.818	0.74756318
581.019	0.74854248
581.221	0.7495316
581.422	0.75057456
581.623	0.75187015
581.824	0.75275542
582.025	0.75375948
582.226	0.75466949
582.428	0.75582368
582.629	0.75675768
582.83	0.75767491
583.031	0.75854071
583.232	0.75967797
583.433	0.76076899
583.634	0.76155225
583.835	0.76239073
584.036	0.76320772
584.237	0.76411317
584.438	0.765029
584.639	0.76565604
584.84	0.76634377
585.041	0.76709525
585.242	0.76777527
585.442	0.76857808
585.643	0.76949356
585.844	0.77020817
586.045	0.77131666
586.246	0.77198724
586.447	0.77280386
586.647	0.77359328
586.848	0.774297
587.049	0.7748792
587.25	0.77561765
587.45	0.77608794
587.651	0.77699662
587.852	0.7778239
588.053	0.77875712
588.253	0.77959662
588.454	0.78058956
588.655	0.78139282
588.855	0.78216851
589.056	0.78287985
589.256	0.78366897
589.457	0.78421105
589.658	0.78494858
589.858	0.78536461
590.059	0.78614833
590.259	0.78697668
590.46	0.78751826
590.66	0.78807481
590.861	0.78872582
591.061	0.78919293
591.262	0.78999485
591.462	0.79056883
591.662	0.79115046
591.863	0.79171534
592.063	0.79242853
592.264	0.79306828
592.464	0.79387332
592.664	0.79446151
592.865	0.79508554
593.065	0.79535008
593.265	0.7961583
593.465	0.79650514
593.666	0.79696524
593.866	0.79735557
594.066	0.79777693
594.266	0.7981187
594.467	0.79846971
594.667	0.79869811
594.867	0.79916716
595.067	0.79953275
595.267	0.7999336
595.467	0.80027962
595.668	0.80066196
595.868	0.80135674
596.068	0.80178544
596.268	0.80216359
596.468	0.80250172
596.668	0.80296666
596.868	0.80333691
597.068	0.80385875
597.268	0.80425518
597.468	0.80463307
597.668	0.80496413
597.868	0.80529843
598.068	0.80548266
598.268	0.80577814
598.467	0.80592804
598.667	0.80609945
598.867	0.80627694
599.067	0.80659862
599.267	0.80685292
599.467	0.80706485
599.667	0.80716453
599.866	0.80748383
600.066	0.80778427
600.266	0.80807578
600.466	0.8082413
600.665	0.80834674
600.865	0.8083647
601.065	0.80869623
601.264	0.80868752
601.464	0.80877024
601.664	0.8089109
601.863	0.80912937
602.063	0.80935912
602.263	0.80940789
602.462	0.80954823
602.662	0.80977718
602.861	0.80974604
603.061	0.80974703
603.26	0.80970114
603.46	0.80968857
603.659	0.8099634
603.859	0.80998821
604.058	0.80998406
604.258	0.81025477
604.457	0.8105292
604.657	0.81058906
604.856	0.81051248
605.056	0.81054288
605.255	0.81046828
605.454	0.81040933
605.654	0.81020547
605.853	0.81000627
606.052	0.80978771
606.252	0.80986259
606.451	0.80986512
606.65	0.81005349
606.849	0.80993033
607.049	0.80989326
607.248	0.80971007
607.447	0.80973898
607.646	0.80981551
607.845	0.80964726
608.045	0.80928376
608.244	0.80936719
608.443	0.80928594
608.642	0.80927071
608.841	0.80913928
609.04	0.80870677
609.239	0.80856837
609.438	0.80832903
609.637	0.80802098
609.836	0.8078417
610.035	0.80758331
610.234	0.80745356
610.433	0.80736493
610.632	0.80706904
610.831	0.80695919
611.03	0.80669782
611.229	0.80658173
611.428	0.80645645
611.627	0.80623901
611.826	0.80599046
612.025	0.80588699
612.224	0.80547605
612.422	0.80518783
612.621	0.80468596
612.82	0.80440112
613.019	0.80402974
613.218	0.80366677
613.416	0.80308566
613.615	0.80274872
613.814	0.80229716
614.012	0.80199463
614.211	0.80137233
614.41	0.80095092
614.608	0.80056095
614.807	0.80027041
615.006	0.800011
615.204	0.79952122
615.403	0.79916204
615.602	0.79880617
615.8	0.79830965
615.999	0.79765552
616.197	0.79708311
616.396	0.79644431
616.594	0.79595328
616.793	0.79535553
616.991	0.79476275
617.19	0.79411444
617.388	0.79381948
617.586	0.79330119
617.785	0.79277359
617.983	0.79231825
618.182	0.7917538
618.38	0.79116236
618.578	0.79066691
618.777	0.79004701
618.975	0.78959786
619.173	0.78899822
619.372	0.78839578
619.57	0.78763886
619.768	0.78714956
619.966	0.78646213
620.165	0.78563723
620.363	0.78499963
620.561	0.78429973
620.759	0.78363056
620.957	0.78316231
621.155	0.78238846
621.354	0.78187995
621.552	0.78158218
621.75	0.78081913
621.948	0.78031298
622.146	0.77956366
622.344	0.77862506
622.542	0.77794817
622.74	0.77697317
622.938	0.7759588
623.136	0.77524588
623.334	0.77446269
623.532	0.77361417
623.73	0.77302416
623.928	0.77233357
624.126	0.77180543
624.324	0.77124599
624.522	0.77031545
624.719	0.7693023
624.917	0.76866569
625.115	0.76784024
625.313	0.76716337
625.511	0.76643617
625.708	0.76551728
625.906	0.76484003
626.104	0.7641566
626.302	0.76337897
626.499	0.76263193
626.697	0.76162607
626.895	0.76053307
627.093	0.75967365
627.29	0.75878214
627.488	0.75782461
627.686	0.75696281
627.883	0.75588907
628.081	0.7548311
628.278	0.75412326
628.476	0.75315447
628.673	0.75208277
628.871	0.75135
629.068	0.75035598
629.266	0.74949007
629.463	0.74863381
629.661	0.74757537
629.858	0.74660308
630.056	0.74575715
630.253	0.74476336
630.451	0.74380616
630.648	0.74278478
630.845	0.74180232
631.043	0.74083121
631.24	0.74007305
631.438	0.73913141
631.635	0.73808082
631.832	0.73700162
632.029	0.73607526
632.227	0.73497077
632.424	0.73390227
632.621	0.73253835
632.818	0.73144644
633.016	0.73035057
633.213	0.72921533
633.41	0.72795525
633.607	0.72684294
633.804	0.7257116
634.001	0.72454412
634.199	0.72323668
634.396	0.72209452
634.593	0.72088322
634.79	0.7199589
634.987	0.71891356
635.184	0.71787658
635.381	0.71693324
635.578	0.71603433
635.775	0.71489374
635.972	0.71388509
636.169	0.71261712
636.366	0.71147712
636.563	0.71026046
636.76	0.70903407
636.957	0.70788768
637.153	0.70666034
637.35	0.7056972
637.547	0.70466787
637.744	0.70350856
637.941	0.70255312
638.138	0.70140351
638.334	0.7002003
638.531	0.69920188
638.728	0.69787054
638.925	0.69674945
639.121	0.6957154
639.318	0.69423501
639.515	0.69292872
639.711	0.69178565
639.908	0.69031772
640.105	0.68910262
640.301	0.68774935
640.498	0.68638367
640.695	0.68534466
640.891	0.6842006
641.088	0.68292244
641.284	0.68181217
641.481	0.68069425
641.677	0.67951729
641.874	0.67821674
642.07	0.67704225
642.267	0.67602603
642.463	0.67467459
642.66	0.6735971
642.856	0.67218616
643.053	0.67071494
643.249	0.66948215
643.445	0.66808421
643.642	0.66648144
643.838	0.66526147
644.034	0.66381379
644.231	0.66245176
644.427	0.66123644
644.623	0.65979064
644.82	0.65844956
645.016	0.65710608
645.212	0.65565696
645.408	0.65423728
645.604	0.65305293
645.801	0.65171883
645.997	0.65035146
646.193	0.64902264
646.389	0.64790134
646.585	0.6466649
646.781	0.64534433
646.977	0.6440936
647.173	0.64279574
647.37	0.64165532
647.566	0.64033446
647.762	0.63896163
647.958	0.63776927
648.154	0.63640209
648.35	0.63492133
648.546	0.63344509
648.742	0.63205958
648.937	0.63051414
649.133	0.62917137
649.329	0.6276327
649.525	0.62627736
649.721	0.62477363
649.917	0.62347883
650.113	0.62191613
650.309	0.62061949
650.504	0.61897057
650.7	0.61753234
650.896	0.61610382
651.092	0.61475449
651.287	0.61327391
651.483	0.61194725
651.679	0.61052094
651.875	0.60928905
652.07	0.60797409
652.266	0.6065948
652.462	0.60526265
652.657	0.60395162
652.853	0.60252306
653.048	0.60114238
653.244	0.59965523
653.44	0.59814359
653.635	0.59652293
653.831	0.59503818
654.026	0.59366311
654.222	0.59216655
654.417	0.5907898
654.613	0.58932646
654.808	0.58778676
655.004	0.58647351
655.199	0.58496307
655.394	0.5834492
655.59	0.58211572
655.785	0.58054181
655.98	0.57915419
656.176	0.57771829
656.371	0.57645887
656.566	0.57515874
656.762	0.57363849
656.957	0.57210766
657.152	0.57068697
657.348	0.56918924
657.543	0.56778
657.738	0.56618685
657.933	0.56459876
658.128	0.56310268
658.324	0.56161339
658.519	0.56021795
658.714	0.55873939
658.909	0.55720183
659.104	0.5557821
659.299	0.55424668
659.494	0.55274122
659.689	0.55133274
659.884	0.54967542
660.079	0.54805669
660.274	0.54651654
660.469	0.54494212
660.664	0.54356194
660.859	0.54210575
661.054	0.54061651
661.249	0.53917375
661.444	0.53784353
661.639	0.536314
661.834	0.53482554
662.029	0.53329309
662.224	0.53179979
662.418	0.53022895
662.613	0.52882594
662.808	0.52716544
663.003	0.5258313
663.198	0.52422818
663.392	0.52260634
663.587	0.52117264
663.782	0.51957688
663.977	0.5179146
664.171	0.51644991
664.366	0.51485118
664.561	0.51336427
664.755	0.51191079
664.95	0.51040834
665.144	0.5089936
665.339	0.50772
665.534	0.50635563
665.728	0.50502378
665.923	0.50363418
666.117	0.50224061
666.312	0.50081332
666.506	0.49944216
666.701	0.49790042
666.895	0.49644658
667.09	0.4947817
667.284	0.49340608
667.479	0.49190214
667.673	0.49037422
667.867	0.48887584
668.062	0.48733653
668.256	0.48579834
668.45	0.48446179
668.645	0.48285142
668.839	0.48135933
669.033	0.47979796
669.228	0.47821411
669.422	0.47674764
669.616	0.47521564
669.81	0.47372336
670.004	0.47231234
670.199	0.4708849
670.393	0.46950828
670.587	0.46813818
670.781	0.46668306
670.975	0.46526793
671.169	0.46367448
671.363	0.46211575
671.558	0.4605842
671.752	0.45915759
671.946	0.45783594
672.14	0.45650998
672.334	0.45508603
672.528	0.45386208
672.722	0.4524174
672.916	0.45107333
673.11	0.44952531
673.304	0.44807871
673.497	0.44638518
673.691	0.44486463
673.885	0.44318251
674.079	0.4417173
674.273	0.44010142
674.467	0.43866803
674.661	0.43701197
674.854	0.4355849
675.048	0.43408968
675.242	0.43280995
675.436	0.43146056
675.629	0.43019027
675.823	0.42874471
676.017	0.42746639
676.211	0.42615147
676.404	0.42488365
676.598	0.42350748
676.792	0.42217193
676.985	0.42072226
677.179	0.41925022
677.372	0.41769079
677.566	0.41618176
677.76	0.41464937
677.953	0.41304521
678.147	0.41149004
678.34	0.41018062
678.534	0.40888683
678.727	0.40769396
678.921	0.40649797
679.114	0.40518167
679.307	0.40396257
679.501	0.4025734
679.694	0.40101816
679.888	0.39952584
680.081	0.3980456
680.274	0.39639462
680.468	0.39499571
680.661	0.39348261
680.854	0.39219209
681.048	0.39078986
681.241	0.38928293
681.434	0.38777245
681.627	0.38634957
681.821	0.38487364
682.014	0.38356192
682.207	0.38202247
682.4	0.38072128
682.593	0.37949774
682.786	0.3781962
682.98	0.37700823
683.173	0.37579936
683.366	0.37449367
683.559	0.37325309
683.752	0.37186621
683.945	0.37046786
684.138	0.36912998
684.331	0.36763997
684.524	0.36625117
684.717	0.36483339
684.91	0.36353312
685.103	0.36228475
685.296	0.36098682
685.489	0.35964613
685.682	0.35836284
685.874	0.35706444
686.067	0.35570318
686.26	0.35439994
686.453	0.35305836
686.646	0.35167605
686.839	0.35043388
687.031	0.3492108
687.224	0.34788786
687.417	0.34678038
687.61	0.34551445
687.802	0.34426439
687.995	0.34307873
688.188	0.34183072
688.38	0.34047995
688.573	0.33918067
688.766	0.33779819
688.958	0.33639294
689.151	0.33500849
689.343	0.3337677
689.536	0.33245305
689.729	0.33111414
689.921	0.32985601
690.114	0.32853362
690.306	0.32727405
690.499	0.32609341
690.691	0.324788
690.884	0.32353819
691.076	0.32239052
691.268	0.32113424
691.461	0.31984952
691.653	0.31872236
691.846	0.31756561
692.038	0.316441
692.23	0.31513888
692.423	0.31394454
692.615	0.31277281
692.807	0.31162305
692.999	0.31035032
693.192	0.30906522
693.384	0.3078845
693.576	0.30682644
693.768	0.30575551
693.961	0.30460393
694.153	0.30346182
694.345	0.30231967
694.537	0.30121011
694.729	0.30003557
694.921	0.29880817
695.113	0.29760538
695.305	0.29629136
695.498	0.29504308
695.69	0.29384107
695.882	0.29252972
696.074	0.29131165
696.266	0.29011582
696.458	0.28887142
696.65	0.28778455
696.842	0.28672379
697.033	0.28565865
697.225	0.28457942
697.417	0.28348726
697.609	0.28228213
697.801	0.28106365
697.993	0.27986479
698.185	0.27862431
698.376	0.27739739
698.568	0.27621065
698.76	0.27504528
698.952	0.2739879
699.144	0.27298373
699.335	0.27197706
699.527	0.27100626
699.719	0.26992266
699.91	0.26885977
700.102	0.26767323
700.294	0.2665893
700.485	0.26549937
700.677	0.26440938
700.869	0.26339912
701.06	0.26240737
701.252	0.26140754
701.443	0.26045365
701.635	0.25943591
701.826	0.25834912
702.018	0.25730914
702.209	0.25626467
702.401	0.25519365
702.592	0.25416525
702.784	0.25317846
702.975	0.25221971
703.166	0.25132902
703.358	0.25034805
703.549	0.2493692
703.741	0.24837953
703.932	0.24729431
704.123	0.24631041
704.315	0.2453245
704.506	0.24442775
704.697	0.24341318
704.888	0.24252174
705.08	0.24166307
705.271	0.24091793
705.462	0.23993401
705.653	0.23893029
705.844	0.23788285
706.035	0.23698595
706.227	0.23588743
706.418	0.23480023
706.609	0.23367005
706.8	0.23267351
706.991	0.2316488
707.182	0.23070211
707.373	0.22966814
707.564	0.22874272
707.755	0.22778744
707.946	0.22687758
708.137	0.22593497
708.328	0.2249521
708.519	0.22396029
708.71	0.22294077
708.901	0.22200563
709.092	0.22118552
709.283	0.22030298
709.473	0.21941597
709.664	0.21868763
709.855	0.21783103
710.046	0.21706467
710.237	0.21606798
710.427	0.21502677
710.618	0.21402092
710.809	0.213055
711	0.21208453
711.19	0.21109407
711.381	0.21017513
711.572	0.20927969
711.762	0.20845755
711.953	0.2076577
712.144	0.20683183
712.334	0.20599181
712.525	0.2052189
712.715	0.20441206
712.906	0.20356433
713.097	0.2026727
713.287	0.20182946
713.478	0.20097324
713.668	0.20019804
713.859	0.19948433
714.049	0.19870975
714.239	0.19803943
714.43	0.19730377
714.62	0.19654159
714.811	0.19579804
715.001	0.1950275
715.191	0.19413085
715.382	0.19323471
715.572	0.19250902
715.762	0.19181054
715.953	0.19113314
716.143	0.19044808
716.333	0.18971039
716.523	0.18907761
716.714	0.1885059
716.904	0.18780861
717.094	0.18715618
717.284	0.18640816
717.474	0.18560374
717.664	0.1848768
717.855	0.18414893
718.045	0.18348149
718.235	0.18281825
718.425	0.1822315
718.615	0.18166624
718.805	0.18110546
718.995	0.18046928
719.185	0.17976794
719.375	0.17896974
719.565	0.1781745
719.755	0.17728081
719.945	0.17642405
720.135	0.17571214
720.325	0.17502413
720.515	0.17441754
720.704	0.17383143
720.894	0.17324982
721.084	0.17265057
721.274	0.17209681
721.464	0.17142517
721.654	0.17082559
721.843	0.17013741
722.033	0.16954269
722.223	0.16890344
722.413	0.16837962
722.602	0.16776745
722.792	0.1670872
722.982	0.16636395
723.171	0.16567319
723.361	0.16495624
723.55	0.16428028
723.74	0.16351592
723.93	0.16284435
724.119	0.16227532
724.309	0.16170074
724.498	0.16115977
724.688	0.16057946
724.877	0.15993868
725.067	0.15930082
725.256	0.15866244
725.446	0.15804095
725.635	0.15737493
725.825	0.15664634
726.014	0.15599434
726.203	0.15538999
726.393	0.15476769
726.582	0.15409854
726.771	0.15349194
726.961	0.1529381
727.15	0.15243488
727.339	0.15183065
727.529	0.15129327
727.718	0.1507538
727.907	0.1502272
728.096	0.1496231
728.286	0.14901368
728.475	0.14842809
728.664	0.14779853
728.853	0.14716965
729.042	0.14654274
729.231	0.14597418
729.42	0.1454344
729.609	0.14485522
729.799	0.14421095
729.988	0.14371034
730.177	0.14316134
730.366	0.14260179
730.555	0.14203432
730.744	0.1414339
730.933	0.14093249
731.122	0.14045356
731.31	0.13991877
731.499	0.1393645
731.688	0.1388954
731.877	0.13842238
732.066	0.13803889
732.255	0.13762018
732.444	0.13719328
732.632	0.13682012
732.821	0.13645046
733.01	0.13599772
733.199	0.13550349
733.388	0.1350283
733.576	0.13461674
733.765	0.13419879
733.954	0.13373932
734.142	0.13326962
734.331	0.1327515
734.52	0.13229368
734.708	0.13176822
734.897	0.13115753
735.086	0.13055464
735.274	0.12994425
735.463	0.12939046
735.651	0.1289668
735.84	0.12857799
736.028	0.12815357
736.217	0.12775397
736.405	0.12739198
736.594	0.12703437
736.782	0.12665534
736.971	0.12621614
737.159	0.12572572
737.347	0.12534186
737.536	0.12487691
737.724	0.12434873
737.912	0.12381423
738.101	0.12337072
738.289	0.1229808
738.477	0.12260456
738.666	0.12207286
738.854	0.12165537
739.042	0.12128913
739.23	0.12094182
739.418	0.12056171
739.607	0.12013607
739.795	0.11971464
739.983	0.11930747
740.171	0.11885531
740.359	0.11840448
740.547	0.11808059
740.735	0.11772017
740.923	0.11742158
741.112	0.11709609
741.3	0.11681028
741.488	0.11656902
741.676	0.11622611
741.864	0.1157921
742.052	0.11533791
742.239	0.11481976
742.427	0.11430441
742.615	0.11379003
742.803	0.11332415
742.991	0.11298486
743.179	0.11263575
743.367	0.11231904
743.555	0.1119615
743.742	0.1115727
743.93	0.11125688
744.118	0.11083742
744.306	0.11049224
744.494	0.11020374
744.681	0.1099323
744.869	0.1096865
745.057	0.10946371
745.244	0.10920672
745.432	0.10890613
745.62	0.10863705
745.807	0.10839242
745.995	0.10812175
746.182	0.10792492
746.37	0.10768691
746.558	0.10746069
746.745	0.10727636
746.933	0.10700866
747.12	0.10668597
747.308	0.10635235
747.495	0.10595147
747.683	0.10564757
747.87	0.10535804
748.057	0.10511225
748.245	0.1048693
748.432	0.10454656
748.62	0.1042234
748.807	0.10393631
748.994	0.10368753
749.182	0.10346614
749.369	0.1032736
749.556	0.10307088
749.743	0.10295485
749.931	0.10285155
750.118	0.10273062
750.305	0.10246686
750.492	0.10209122
750.68	0.10181396
750.867	0.10157458
751.054	0.10131776
751.241	0.10104873
751.428	0.10068406
751.615	0.10031193
751.802	0.10000576
751.989	0.09955048
752.176	0.09911996
752.363	0.09863515
752.55	0.0981451
752.737	0.09780194
752.924	0.09758249
753.111	0.09744347
753.298	0.0973573
753.485	0.09719074
753.672	0.09706182
753.859	0.09698935
754.046	0.09688419
754.233	0.0968144
754.42	0.0967132
754.606	0.09645187
754.793	0.09623459
754.98	0.09601109
755.167	0.09568941
755.353	0.09543651
755.54	0.09516122
755.727	0.09492716
755.914	0.09482265
756.1	0.09469855
756.287	0.09460982
756.474	0.09455806
756.66	0.09448289
756.847	0.09426996
757.033	0.09403869
757.22	0.09376241
757.407	0.09350567
757.593	0.0931775
757.78	0.09288912
757.966	0.09254567
758.153	0.09224609
758.339	0.09186189
758.526	0.09158928
758.712	0.0913404
758.898	0.09123929
759.085	0.09116588
759.271	0.09110458
759.458	0.09110603
759.644	0.09112135
759.83	0.09104293
760.017	0.09092745
760.203	0.09076862
760.389	0.09049436
760.576	0.09029435
760.762	0.09004912
760.948	0.08982998
761.134	0.08964784
761.32	0.089566
761.507	0.08942172
761.693	0.08940635
761.879	0.08937997
762.065	0.08938146
762.251	0.08940703
762.437	0.08945631
762.623	0.08934955
762.809	0.08926177
762.995	0.0891212
763.181	0.08895116
763.367	0.08877833
763.553	0.08848311
763.739	0.08815338
763.925	0.08783688
764.111	0.08752583
764.297	0.08722915
764.483	0.086867
764.669	0.08657082
764.855	0.08641769
765.041	0.08628887
765.227	0.08615258
765.412	0.08606149
765.598	0.08603355
765.784	0.08610772
765.97	0.08608969
766.156	0.08596614
766.341	0.08581895
766.527	0.08576151
766.713	0.08569599
766.898	0.08561076
767.084	0.08539319
767.27	0.08517056
767.455	0.08496508
767.641	0.08480874
767.827	0.0846617
768.012	0.08446481
768.198	0.08420935
768.383	0.08411613
768.569	0.08410976
768.754	0.0841366
768.94	0.08408038
769.125	0.08401525
769.311	0.08401659
769.496	0.08406313
769.682	0.08404589
769.867	0.08403429
770.052	0.08397834
770.238	0.08391245
770.423	0.08383272
770.608	0.08366254
770.794	0.08348809
770.979	0.0833442
771.164	0.08322757
771.35	0.08309166
771.535	0.08302132
771.72	0.08292057
771.905	0.082909
772.09	0.08286266
772.276	0.08281433
772.461	0.08266284
772.646	0.08256201
772.831	0.08247317
773.016	0.08236322
773.201	0.08228823
773.386	0.08224573
773.571	0.08220361
773.756	0.08214831
773.941	0.08209591
774.126	0.08207588
774.311	0.0820564
774.496	0.081965
774.681	0.08185634
774.866	0.08172002
775.051	0.08156907
775.236	0.08152044
775.421	0.08144525
775.606	0.08142996
775.791	0.08142365
775.976	0.08145773
776.16	0.08145186
776.345	0.08151474
776.53	0.08155604
776.715	0.08162653
776.899	0.08161696
777.084	0.08157315
777.269	0.08152131
777.454	0.08149681
777.638	0.08147277
777.823	0.08137868
778.008	0.08133364
778.192	0.08141496
778.377	0.08141618
778.561	0.08141604
778.746	0.08147368
778.931	0.08143956
779.115	0.08140026
779.3	0.08118087
779.484	0.08094656
779.669	0.0808519
779.853	0.08069834
780.037	0.08047696
780.222	0.08032435
780.406	0.0801805
780.591	0.08020985
780.775	0.0801625
780.959	0.0800892
781.144	0.07994775
781.328	0.07980915
781.512	0.07969372
781.697	0.07958043
781.881	0.07944324
782.065	0.07931271
782.249	0.07912289
782.434	0.07906189
782.618	0.07905963
782.802	0.07906084
782.986	0.07907859
783.17	0.0790437
783.354	0.07905331
783.539	0.07920917
783.723	0.07935134
783.907	0.07936012
784.091	0.07936077
784.275	0.07929419
784.459	0.07923876
784.643	0.07914056
784.827	0.07894042
785.011	0.07863446
785.195	0.07839274
785.379	0.07815386
785.563	0.07799248
785.747	0.07775421
785.93	0.07755788
786.114	0.07732915
786.298	0.07715038
786.482	0.07701769
786.666	0.07693724
786.85	0.07687136
787.033	0.07695254
787.217	0.07697627
787.401	0.07708749
787.585	0.07727409
787.768	0.07741311
787.952	0.07747754
788.136	0.07752929
788.319	0.07748049
788.503	0.07752234
788.687	0.07754484
788.87	0.07747945
789.054	0.07742253
789.237	0.07741257
789.421	0.07739792
789.605	0.07743817
789.788	0.07743345
789.972	0.07736929
790.155	0.07731407
790.338	0.07725713
790.522	0.07720268
790.705	0.07716856
790.889	0.07711798
791.072	0.07707818
791.256	0.07707064
791.439	0.07712374
791.622	0.07721277
791.806	0.07726487
791.989	0.07727544
792.172	0.07728256
792.355	0.07716925
792.539	0.07702525
792.722	0.07680821
792.905	0.07649693
793.088	0.07628555
793.271	0.0760954
793.455	0.07594417
793.638	0.07591892
793.821	0.07592275
794.004	0.0759415
794.187	0.07610065
794.37	0.07627272
794.553	0.07635367
794.736	0.0763408
794.919	0.0762772
795.102	0.07616046
795.285	0.07611574
795.468	0.07606141
795.651	0.07595246
795.834	0.07592623
796.017	0.07590872
796.2	0.0759091
796.383	0.07598634
796.566	0.07607803
796.749	0.07620283
796.931	0.07625541
797.114	0.07634563
797.297	0.07647503
797.48	0.07663004
797.663	0.07671772
797.845	0.07676403
798.028	0.07683639
798.211	0.07692319
798.393	0.07699911
798.576	0.07709628
798.759	0.07708912
798.941	0.07723983
799.124	0.0773672
799.307	0.07741585
799.489	0.07746952
799.672	0.07750138
799.854	0.07745444
800.037	0.07750854
800.219	0.07749184
800.402	0.07742987
800.584	0.0774295
800.767	0.07744976
800.949	0.07744377
801.132	0.07745243
801.314	0.07743511
801.496	0.07744712
801.679	0.07745969
801.861	0.07738861
802.043	0.07732689
802.226	0.07724913
802.408	0.07715272
802.59	0.07711381
802.772	0.07697506
802.955	0.07697
803.137	0.07697676
803.319	0.0768603
803.501	0.07679805
803.684	0.07676206
803.866	0.07664011
804.048	0.07662254
804.23	0.0765935
804.412	0.07667254
804.594	0.0768304
804.776	0.07699002
804.958	0.07719573
805.14	0.07740114
805.322	0.07749862
805.504	0.07749576
805.686	0.07733516
805.868	0.077248
806.05	0.07715782
806.232	0.07705603
806.414	0.07702371
806.596	0.07704122
806.778	0.07702998
806.96	0.07717596
807.141	0.07721909
807.323	0.07721172
807.505	0.07717204
807.687	0.07706136
807.869	0.07696301
808.05	0.07677026
808.232	0.07649749
808.414	0.07631389
808.595	0.07620586
808.777	0.07602451
808.959	0.07598403
809.14	0.07594995
809.322	0.07612514
809.504	0.07628804
809.685	0.0763824
809.867	0.07655442
810.048	0.0767372
810.23	0.07682457
810.411	0.07688096
810.593	0.07686887
810.774	0.07674272
810.956	0.0765979
811.137	0.07632463
811.319	0.07614172
811.5	0.07603149
811.681	0.07588042
811.863	0.07578466
812.044	0.07586868
812.225	0.07598483
812.407	0.0761608
812.588	0.07624102
812.769	0.07625232
812.951	0.07633368
813.132	0.0764149
813.313	0.07641382
813.494	0.07648615
813.675	0.07656551
813.857	0.07671536
814.038	0.07686731
814.219	0.07696267
814.4	0.07697587
814.581	0.07699838
814.762	0.07695097
814.943	0.07682536
815.124	0.0767543
815.305	0.07669556
815.486	0.07675177
815.667	0.07686776
815.848	0.07704114
816.029	0.07715736
816.21	0.07728946
816.391	0.07738198
816.572	0.07737418
816.753	0.07725345
816.934	0.07704146
817.115	0.07670867
817.295	0.07647893
817.476	0.07631719
817.657	0.0761673
817.838	0.07616712
818.019	0.07618509
818.199	0.07626241
818.38	0.07636714
818.561	0.07642936
818.741	0.07636343
818.922	0.07638172
819.103	0.07637485
819.283	0.07642667
819.464	0.07658479
819.645	0.07680165
819.825	0.0769771
820.006	0.07722885
820.186	0.07731116
820.367	0.07735521
820.547	0.07726678
820.728	0.07714043
820.908	0.07697261
821.089	0.07689091
821.269	0.07689773
821.45	0.07707632
821.63	0.07719156
821.81	0.07745744
821.991	0.07766326
822.171	0.07784071
822.351	0.07798779
822.532	0.07806361
822.712	0.07806813
822.892	0.07813767
823.072	0.07795987
823.253	0.0777727
823.433	0.07765815
823.613	0.07756817
823.793	0.07751975
823.973	0.07744442
824.154	0.07734845
824.334	0.07736582
824.514	0.07740645
824.694	0.07750962
824.874	0.07771383
825.054	0.07775729
825.234	0.07780879
825.414	0.07783452
825.594	0.07800663
825.774	0.07810458
825.954	0.07816366
826.134	0.07816072
826.314	0.07830783
826.494	0.07847714
826.674	0.07856603
826.854	0.07852094
827.033	0.0786076
827.213	0.078506
827.393	0.07838134
827.573	0.07825107
827.753	0.07821456
827.932	0.07824936
828.112	0.07838835
828.292	0.07840738
828.472	0.07847413
828.651	0.07849741
828.831	0.07838756
829.011	0.07820214
829.19	0.07800109
829.37	0.07783056
829.549	0.07776768
829.729	0.07785576
829.909	0.07801
830.088	0.07824285
830.268	0.07842906
830.447	0.0786662
830.627	0.07884386
830.806	0.07893232
830.986	0.078997
831.165	0.07898472
831.344	0.07898805
831.524	0.07896724
831.703	0.07902423
831.883	0.0790797
832.062	0.07917814
832.241	0.07918978
832.421	0.07910178
832.6	0.078974
832.779	0.07891384
832.958	0.07873816
833.138	0.07854396
833.317	0.0783311
833.496	0.07813805
833.675	0.07804269
833.854	0.0780837
834.034	0.07806202
834.213	0.07804447
834.392	0.07807677
834.571	0.07811406
834.75	0.07826207
834.929	0.07839007
835.108	0.07830097
835.287	0.07834511
835.466	0.07837376
835.645	0.07840053
835.824	0.07853537
836.003	0.0785595
836.182	0.07855538
836.361	0.07846872
836.54	0.07830386
836.719	0.07824444
836.897	0.07813383
837.076	0.07799976
837.255	0.07788799
837.434	0.07790537
837.613	0.07811267
837.791	0.07826223
837.97	0.07835013
838.149	0.07835323
838.328	0.07834231
838.506	0.07836803
838.685	0.07827517
838.864	0.0782254
839.042	0.0781922
839.221	0.07815194
839.4	0.07819608
839.578	0.07823644
839.757	0.07823887
839.935	0.07840074
840.114	0.0784684
840.292	0.0785858
840.471	0.07874262
840.649	0.07886766
840.828	0.0789133
841.006	0.07895247
841.185	0.07884636
841.363	0.07880257
841.541	0.07880393
841.72	0.07880227
841.898	0.07879395
842.076	0.07887184
842.255	0.07889523
842.433	0.07898964
842.611	0.07903083
842.789	0.07901782
842.968	0.07894787
843.146	0.07890207
843.324	0.07875934
843.502	0.07870536
843.68	0.07859788
843.859	0.0785892
844.037	0.0785868
844.215	0.07858036
844.393	0.07847861
844.571	0.0785443
844.749	0.07854888
844.927	0.07865163
845.105	0.07858432
845.283	0.07856291
845.461	0.07851326
845.639	0.07860759
845.817	0.07868307
845.995	0.07878085
846.173	0.07882321
846.351	0.07891656
846.529	0.07897268
846.706	0.07895601
846.884	0.07887558
847.062	0.0785701
847.24	0.07831547
847.418	0.07802265
847.595	0.0778469
847.773	0.07771833
847.951	0.07776627
848.129	0.07790757
848.306	0.07820949
848.484	0.07851373
848.662	0.07886198
848.839	0.07918435
849.017	0.07952708
849.194	0.07977628
849.372	0.08003104
849.549	0.08019251
849.727	0.0802363
849.905	0.0801894
850.082	0.08002064
850.26	0.07970474
850.437	0.07957418
850.614	0.07941112
850.792	0.07923777
850.969	0.07919444
851.147	0.07919746
851.324	0.07913272
851.501	0.07910974
851.679	0.07891986
851.856	0.07871474
852.033	0.07848879
852.211	0.07826584
852.388	0.07795047
852.565	0.07796592
852.742	0.07798143
852.92	0.07805651
853.097	0.0781888
853.274	0.07830536
853.451	0.07826353
853.628	0.07833955
853.805	0.07830704
853.982	0.07823252
854.159	0.0780823
854.336	0.07793404
854.514	0.07788662
854.691	0.07783098
854.868	0.07781604
855.045	0.07773474
855.221	0.07766212
855.398	0.0776179
855.575	0.07746678
855.752	0.07728081
855.929	0.07732216
856.106	0.07724507
856.283	0.07717769
856.46	0.07712653
856.637	0.07719381
856.813	0.07727616
856.99	0.07745579
857.167	0.07755533
857.344	0.07780767
857.52	0.07807758
857.697	0.07821271
857.874	0.07825459
858.05	0.07832405
858.227	0.07836455
858.404	0.07831414
858.58	0.07825576
858.757	0.07811342
858.933	0.07815526
859.11	0.07807069
859.287	0.07795667
859.463	0.07791555
859.64	0.07791826
859.816	0.0778018
859.993	0.07785554
860.169	0.07792803
860.345	0.07809712
860.522	0.07820841
860.698	0.07816604
860.875	0.07822661
861.051	0.07834715
861.227	0.07837563
861.404	0.0784472
861.58	0.07850074
861.756	0.07869199
861.932	0.07883261
862.109	0.07883085
862.285	0.07877943
862.461	0.07863147
862.637	0.07834719
862.813	0.07815928
862.99	0.07784701
863.166	0.07759087
863.342	0.07741729
863.518	0.07728095
863.694	0.07721984
863.87	0.07718327
864.046	0.07712724
864.222	0.07717943
864.398	0.07713483
864.574	0.07697144
864.75	0.07688951
864.926	0.07686132
865.102	0.07693323
865.278	0.07696973
865.454	0.07702724
865.63	0.07723408
865.805	0.07748127
865.981	0.07771166
866.157	0.07788348
866.333	0.07796763
866.509	0.07804769
866.684	0.07804547
866.86	0.07801753
867.036	0.07806071
867.212	0.07806184
867.387	0.07807867
867.563	0.0781556
867.739	0.07819485
867.914	0.07825926
868.09	0.0782399
868.265	0.07816509
868.441	0.07799327
868.617	0.07788243
868.792	0.0776466
868.968	0.07755231
869.143	0.07759969
869.319	0.07764267
869.494	0.077772
869.67	0.07792114
869.845	0.0779178
870.02	0.07804891
870.196	0.07814677
870.371	0.0779919
870.546	0.07787219
870.722	0.07775025
870.897	0.07761988
871.072	0.07760148
871.248	0.07747155
871.423	0.07726389
871.598	0.07710327
871.773	0.07705591
871.949	0.07692646
872.124	0.07701116
872.299	0.07694866
872.474	0.07688839
872.649	0.07684005
872.824	0.07682096
872.999	0.07680307
873.174	0.07680527
873.349	0.07666577
873.524	0.07649473
873.699	0.07632332
873.874	0.07627834
874.049	0.07617347
874.224	0.07599386
874.399	0.07579161
874.574	0.07559746
874.749	0.07553848
874.924	0.07548421
875.099	0.07535788
875.274	0.07532122
875.449	0.07534608
875.623	0.07527019
875.798	0.07508009
875.973	0.07484808
876.148	0.07462396
876.322	0.0743154
876.497	0.0741113
876.672	0.07384968
876.846	0.07367942
877.021	0.07369751
877.196	0.0737996
877.37	0.07388233
877.545	0.07397373
877.72	0.07406439
877.894	0.07407912
878.069	0.07406709
878.243	0.07394532
878.418	0.07387193
878.592	0.07392096
878.767	0.07398483
878.941	0.07393326
879.116	0.07387441
879.29	0.07397889
879.464	0.07408994
879.639	0.07416697
879.813	0.07422021
879.987	0.07426706
880.162	0.07411993
880.336	0.07410672
880.51	0.07405559
880.685	0.07393199
880.859	0.07380849
881.033	0.07366573
881.207	0.07349832
881.381	0.07356628
881.556	0.07355935
881.73	0.07349192
881.904	0.07347794
882.078	0.0734077
882.252	0.07326144
882.426	0.07328352
882.6	0.07330102
882.774	0.07334615
882.948	0.07349811
883.122	0.07356676
883.296	0.07361346
883.47	0.07374031
883.644	0.07377828
883.818	0.07369942
883.992	0.07366551
884.166	0.0735244
884.34	0.0734787
884.514	0.0735715
884.687	0.07348721
884.861	0.07336441
885.035	0.07330214
885.209	0.07338723
885.382	0.07335502
885.556	0.07334192
885.73	0.07324289
885.904	0.07329566
886.077	0.07327267
886.251	0.0732348
886.425	0.07310586
886.598	0.07305285
886.772	0.07296398
886.945	0.07274793
887.119	0.07257038
887.292	0.07239973
887.466	0.07243071
887.64	0.07227351
887.813	0.07210957
887.986	0.07193573
888.16	0.07205788
888.333	0.07215609
888.507	0.07236366
888.68	0.07236676
888.854	0.07248653
889.027	0.07267676
889.2	0.07284678
889.374	0.07277177
889.547	0.07269184
889.72	0.07256824
889.893	0.07239031
890.067	0.07219915
890.24	0.07190306
890.413	0.07172394
890.586	0.07168835
890.759	0.07176683
890.933	0.07183732
891.106	0.07190676
891.279	0.07198757
891.452	0.07222713
891.625	0.07232639
891.798	0.07230436
891.971	0.07208847
892.144	0.07169195
892.317	0.07145766
892.49	0.07112549
892.663	0.07093459
892.836	0.07080328
893.009	0.07068828
893.182	0.07059565
893.355	0.07068118
893.527	0.07076784
893.7	0.07091135
893.873	0.07090604
894.046	0.07088445
894.219	0.07087774
894.391	0.07078522
894.564	0.07076524
894.737	0.07066568
894.91	0.07057234
895.082	0.07029305
895.255	0.07020431
895.428	0.07004864
895.6	0.0701192
895.773	0.0700768
895.945	0.07009467
896.118	0.07004153
896.291	0.07016154
896.463	0.07014878
896.636	0.07017997
896.808	0.07015018
896.981	0.07012088
897.153	0.07011672
897.326	0.07019014
897.498	0.07009675
897.67	0.06999137
897.843	0.06992314
898.015	0.06974205
898.187	0.06953265
898.36	0.06915059
898.532	0.06873013
898.704	0.06850634
898.877	0.06826325
899.049	0.06813143
899.221	0.06804955
899.393	0.06805616
899.566	0.06802714
899.738	0.06811381
899.91	0.0681121
900.082	0.06839371
900.254	0.0683945
900.426	0.06850798
900.598	0.0686046
900.77	0.06877005
900.942	0.06882364
901.114	0.06890433
901.286	0.06868442
901.458	0.06866399
901.63	0.06852153
901.802	0.06844606
901.974	0.06834828
902.146	0.0681925
902.318	0.06813361
902.49	0.06801511
902.662	0.06785932
902.834	0.06775059
903.005	0.0675272
903.177	0.06736622
903.349	0.06730432
903.521	0.06706929
903.693	0.06702427
903.864	0.06704089
904.036	0.06703745
904.208	0.06699496
904.379	0.067079
904.551	0.0671247
904.723	0.06700789
904.894	0.06681228
905.066	0.06650997
905.237	0.06608221
905.409	0.06575343
905.58	0.06531059
905.752	0.06493187
905.923	0.06491566
906.095	0.06487622
906.266	0.0649033
906.438	0.06512091
906.609	0.0653718
906.78	0.06552328
906.952	0.06572912
907.123	0.06563325
907.295	0.06566428
907.466	0.06567359
907.637	0.06562239
907.808	0.06540925
907.98	0.06530226
908.151	0.06510518
908.322	0.06507998
908.493	0.06501863
908.665	0.06502306
908.836	0.06490321
909.007	0.06489932
909.178	0.06492865
909.349	0.06490961
909.52	0.06493286
909.691	0.06480436
909.862	0.06459832
910.033	0.06456189
910.204	0.06463539
910.375	0.06456024
910.546	0.06461283
910.717	0.06436842
910.888	0.06429743
911.059	0.06418986
911.23	0.06401492
911.401	0.06378343
911.572	0.06370905
911.742	0.06353174
911.913	0.06361963
912.084	0.06353371
912.255	0.06351934
912.426	0.06356011
912.596	0.06349897
912.767	0.06345213
912.938	0.06343523
913.108	0.06341675
913.279	0.06344168
913.45	0.06347481
913.62	0.06354526
913.791	0.06363873
913.962	0.06369736
914.132	0.06376285
914.303	0.06372926
914.473	0.06372229
914.644	0.0636972
914.814	0.06359925
914.985	0.06344451
915.155	0.0631805
915.326	0.06291696
915.496	0.06280011
915.666	0.06264814
915.837	0.06249456
916.007	0.06222124
916.177	0.06205897
916.348	0.06198005
916.518	0.06183274
916.688	0.06166889
916.858	0.06162155
917.029	0.06152161
917.199	0.06150673
917.369	0.06152394
917.539	0.06154541
917.709	0.06168676
917.88	0.06158412
918.05	0.06138797
918.22	0.06134115
918.39	0.0613897
918.56	0.06129591
918.73	0.06133053
918.9	0.06131501
919.07	0.06151467
919.24	0.06172911
919.41	0.0617878
919.58	0.0618037
919.75	0.06201569
919.92	0.06201426
920.09	0.06212563
920.26	0.06213361
920.429	0.06218559
920.599	0.06223171
920.769	0.06228502
920.939	0.06217397
921.109	0.0620936
921.278	0.06186945
921.448	0.06166184
921.618	0.06134829
921.787	0.06104492
921.957	0.0607118
922.127	0.0603527
922.296	0.06021605
922.466	0.0598794
922.636	0.05966551
922.805	0.05944719
922.975	0.05901687
923.144	0.05860887
923.314	0.05826951
923.483	0.05766931
923.653	0.05723884
923.822	0.05683067
923.992	0.05665032
924.161	0.05683239
924.331	0.05694857
924.5	0.05702232
924.669	0.05725655
924.839	0.05746446
925.008	0.05765567
925.177	0.05757676
925.347	0.05746534
925.516	0.05737529
925.685	0.0573794
925.854	0.05736636
926.023	0.05741954
926.193	0.05744521
926.362	0.05758219
926.531	0.0576321
926.7	0.05772609
926.869	0.05773415
927.038	0.05761486
927.207	0.05768041
927.376	0.05775253
927.545	0.0577404
927.715	0.05776291
927.884	0.05766473
928.052	0.05762368
928.221	0.0574955
928.39	0.05736631
928.559	0.05715015
928.728	0.05698456
928.897	0.05688228
929.066	0.05690534
929.235	0.0568807
929.404	0.05705761
929.572	0.05695568
929.741	0.0569639
929.91	0.05694982
930.079	0.05679897
930.247	0.05680593
930.416	0.05669395
930.585	0.05648164
930.753	0.05640754
930.922	0.05630296
931.091	0.05634807
931.259	0.05623344
931.428	0.0561099
931.596	0.05611047
931.765	0.05631449
931.934	0.05641523
932.102	0.05636125
932.27	0.05642924
932.439	0.05659539
932.607	0.05650498
932.776	0.0565934
932.944	0.05635849
933.113	0.05626874
933.281	0.05625089
933.449	0.05595222
933.618	0.05574864
933.786	0.05580418
933.954	0.05568104
934.123	0.05567517
934.291	0.05570974
934.459	0.05578481
934.627	0.055972
934.795	0.05612907
934.964	0.05598467
935.132	0.05589008
935.3	0.05604093
935.468	0.05589733
935.636	0.05596724
935.804	0.05604715
935.972	0.055949
936.14	0.05611633
936.308	0.05631522
936.476	0.05660054
936.644	0.05693863
936.812	0.05706416
936.98	0.05717938
937.148	0.05763566
937.316	0.05783724
937.484	0.05820338
937.652	0.05837505
937.82	0.05873667
937.987	0.05897905
938.155	0.05919799
938.323	0.0593935
938.491	0.05951918
938.658	0.05943498
938.826	0.05938789
938.994	0.05976894
939.162	0.05995244
939.329	0.06010669
939.497	0.06066381
939.665	0.06127588
939.832	0.0620321
940	0.06199789
940.167	0.06211363
940.335	0.062636
940.502	0.06290711
940.67	0.06327487
940.837	0.0635143
941.005	0.06379003
941.172	0.06504515
941.34	0.06504351
941.507	0.06554125
941.674	0.06623259
941.842	0.06612535
942.009	0.0667768
942.177	0.0665728
942.344	0.06662664
942.511	0.06699363
942.678	0.06709941
942.846	0.06680474
943.013	0.06724797
943.18	0.06728972
943.347	0.06808178
943.514	0.06808991
943.682	0.06844948
943.849	0.06816368
944.016	0.06765014
944.183	0.06816046
944.35	0.06786607
944.517	0.06812265
944.684	0.06811716
944.851	0.06689171
945.018	0.06725122
945.185	0.06804808
945.352	0.06731676
945.519	0.06697402
945.686	0.0659949
945.853	0.06603783
946.02	0.06651118
946.187	0.06577745
946.353	0.06553142
946.52	0.06516587
946.687	0.06498562
946.854	0.06493196
947.021	0.06411106
947.187	0.06395151
947.354	0.06293623
947.521	0.06234131
947.687	0.06170818
947.854	0.06159347
948.021	0.0605466
948.187	0.05997275
948.354	0.0594459
948.52	0.05977889
948.687	0.05998991
948.854	0.05981167
949.02	0.05921983
949.187	0.05942587
949.353	0.05936009
949.52	0.05876953
949.686	0.05827781
949.852	0.05762438
950.019	0.05740998
950.185	0.05690716
950.352	0.05651144
950.518	0.05590368
950.684	0.05556423
950.851	0.05522595
951.017	0.05480193
951.183	0.054447
951.349	0.05424527
951.516	0.05373843
951.682	0.05375944
951.848	0.05322005
952.014	0.05254387
952.18	0.05198254
952.346	0.0515431
952.512	0.05136628
952.679	0.05126659
952.845	0.05097735
953.011	0.05119714
953.177	0.0509925
953.343	0.0507817
953.509	0.05084091
953.675	0.05046912
953.841	0.05049143
954.007	0.05052947
954.172	0.05017998
954.338	0.0501413
954.504	0.0497462
954.67	0.04918106
954.836	0.04898654
955.002	0.04847684
955.167	0.04765041
955.333	0.0471879
955.499	0.04714904
955.665	0.04687582
955.83	0.04646413
955.996	0.04598277
956.162	0.04538065
956.327	0.04510502
956.493	0.04462988
956.659	0.04431566
956.824	0.0440958
956.99	0.04366513
957.155	0.04363187
957.321	0.04333829
957.486	0.04282076
957.652	0.04251848
957.817	0.04224045
957.983	0.04192649
958.148	0.04203477
958.314	0.04162248
958.479	0.04166891
958.644	0.04182412
958.81	0.04201193
958.975	0.04175984
959.14	0.0416331
959.306	0.0411895
959.471	0.04124378
959.636	0.04119749
959.801	0.0412768
959.967	0.04129951
960.132	0.04134756
960.297	0.04145211
960.462	0.04179111
960.627	0.04184555
960.792	0.04159368
960.957	0.04153329
961.123	0.04173221
961.288	0.04136262
961.453	0.04127572
961.618	0.04112669
961.783	0.0410064
961.948	0.04135805
962.113	0.04135705
962.277	0.04095991
962.442	0.04107541
962.607	0.04108928
962.772	0.04101616
962.937	0.04045639
963.102	0.03988868
963.267	0.03933218
963.431	0.03919507
963.596	0.03904098
963.761	0.03889284
963.926	0.03890834
964.09	0.039203
964.255	0.03956388
964.42	0.03974165
964.584	0.03981023
964.749	0.03995368
964.914	0.03974568
965.078	0.03956026
965.243	0.03952221
965.407	0.03929736
965.572	0.0394782
965.736	0.03929144
965.901	0.03940249
966.065	0.03962188
966.23	0.03973072
966.394	0.03972702
966.559	0.03970415
966.723	0.03987659
966.887	0.03987971
967.052	0.03964276
967.216	0.03945981
967.38	0.03910932
967.545	0.03916631
967.709	0.03912176
967.873	0.03882458
968.037	0.03873205
968.202	0.03885148
968.366	0.03892467
968.53	0.03930384
968.694	0.03919836
968.858	0.03936676
969.022	0.03930722
969.187	0.03927296
969.351	0.03913194
969.515	0.0392033
969.679	0.03913144
969.843	0.03913902
970.007	0.03889324
970.171	0.03883886
970.335	0.03888871
970.499	0.03853496
970.662	0.03863476
970.826	0.03866867
970.99	0.03861008
971.154	0.03878808
971.318	0.03888698
971.482	0.03894286
971.645	0.03914412
971.809	0.03869838
971.973	0.03815202
972.137	0.03791825
972.3	0.03759893
972.464	0.03762791
972.628	0.03745618
972.791	0.03744592
972.955	0.037697
973.119	0.03792535
973.282	0.03798516
973.446	0.03755958
973.609	0.03706648
973.773	0.03681488
973.936	0.03642361
974.1	0.03588605
974.263	0.0355647
974.427	0.03552415
974.59	0.03555268
974.754	0.03535397
974.917	0.03534072
975.08	0.03510967
975.244	0.03533147
975.407	0.03522648
975.57	0.03473466
975.734	0.03465607
975.897	0.03480578
976.06	0.03474245
976.223	0.03500116
976.387	0.03480098
976.55	0.03477864
976.713	0.03479679
976.876	0.03489297
977.039	0.03476152
977.202	0.03457631
977.365	0.03442016
977.528	0.03439196
977.692	0.03409336
977.855	0.033824
978.018	0.03377607
978.181	0.03354781
978.344	0.0334061
978.506	0.03333644
978.669	0.03307841
978.832	0.03309796
978.995	0.03309614
979.158	0.03285118
979.321	0.03275765
979.484	0.03267773
979.646	0.03268844
979.809	0.03287371
979.972	0.03302453
980.135	0.03342759
980.297	0.0336246
980.46	0.03392721
980.623	0.03416657
980.786	0.03428262
980.948	0.03429836
981.111	0.03453023
981.273	0.03450591
981.436	0.03454079
981.599	0.03471454
981.761	0.03459576
981.924	0.03481829
982.086	0.03448562
982.249	0.03423291
982.411	0.0338834
982.573	0.03377867
982.736	0.03368996
982.898	0.03350636
983.061	0.03300292
983.223	0.03294834
983.385	0.03281634
983.548	0.03337847
983.71	0.03317833
983.872	0.0330024
984.034	0.0333763
984.197	0.03351125
984.359	0.03381527
984.521	0.03396569
984.683	0.03338378
984.845	0.03370522
985.008	0.03387188
985.17	0.03364558
985.332	0.03375494
985.494	0.03356052
985.656	0.03342113
985.818	0.03355887
985.98	0.0331094
986.142	0.0322995
986.304	0.03203825
986.466	0.03160757
986.628	0.0315954
986.79	0.03172415
986.952	0.03169783
987.113	0.03166875
987.275	0.0320864
987.437	0.03215675
987.599	0.03225329
987.761	0.0318866
987.922	0.03136173
988.084	0.0312981
988.246	0.03171339
988.408	0.03150455
988.569	0.03181145
988.731	0.03192436
988.893	0.03197615
989.054	0.03238078
989.216	0.03251436
989.377	0.03228744
989.539	0.03251622
989.701	0.03228802
989.862	0.03199999
990.024	0.03217266
990.185	0.03204296
990.347	0.03205717
990.508	0.03195363
990.669	0.03206781
990.831	0.03208513
990.992	0.03259798
991.154	0.03270372
991.315	0.03303075
991.476	0.03279396
991.638	0.0328474
991.799	0.03261567
991.96	0.03268932
992.121	0.03251061
992.283	0.03256788
992.444	0.03222696
992.605	0.03215868
992.766	0.03234985
992.927	0.0325243
993.088	0.03242301
993.249	0.03226033
993.41	0.03182076
993.572	0.03197762
993.733	0.03206912
993.894	0.03171879
994.055	0.0311237
994.216	0.03092334
994.376	0.03053601
994.537	0.03074099
994.698	0.03011495
994.859	0.02954191
995.02	0.02942116
995.181	0.02946148
995.342	0.02924278
995.503	0.0289156
995.663	0.02821669
995.824	0.02820108
995.985	0.02861876
996.146	0.02828534
996.306	0.02827499
996.467	0.02828759
996.628	0.02868722
996.788	0.02930732
996.949	0.02942274
997.11	0.02919282
997.27	0.0292682
997.431	0.02890684
997.591	0.0287586
997.752	0.02862846
997.912	0.02866448
998.073	0.02868027
998.233	0.02857585
998.394	0.02851634
998.554	0.02918605
998.714	0.02978084
998.875	0.02939665
999.035	0.02864666
999.196	0.02848071
999.356	0.02870157
999.516	0.02883758
999.676	0.02871315
999.837	0.02803012
999.997	0.02805711
1000.157	0.02863715
1000.317	0.02840658
1000.477	0.02798311
1000.638	0.02771882
1000.798	0.02768192
1000.958	0.02812627
1001.118	0.0288322
1001.278	0.02833617
1001.438	0.02826956
1001.598	0.02881015
1001.758	0.02955217
1001.918	0.0291665
1002.078	0.02843907
1002.238	0.0283389
1002.398	0.02887898
1002.558	0.02903277
1002.718	0.02917205
1002.878	0.02829239
1003.037	0.02806037
1003.197	0.02853405
1003.357	0.02819421
1003.517	0.02827077
1003.677	0.02862809
1003.836	0.02809522
1003.996	0.02877143
1004.156	0.02911098
1004.315	0.02853012
1004.475	0.02851485
1004.635	0.02829505
1004.794	0.02781424
1004.954	0.02750978
1005.114	0.02685759
1005.273	0.02733865
1005.433	0.02774908
1005.592	0.02796019
1005.752	0.02758158
1005.911	0.02757648
1006.071	0.02744763
1006.23	0.02757675
1006.389	0.02723742
1006.549	0.02697958
1006.708	0.02728083
1006.868	0.02755326
1007.027	0.02842014
1007.186	0.02865877
1007.345	0.02916921
1007.505	0.02904826
1007.664	0.02959244
1007.823	0.02931974
1007.982	0.02925911
1008.142	0.02852384
1008.301	0.02943789
1008.46	0.02853838
1008.619	0.02844683
1008.778	0.02847379
1008.937	0.02849167
1009.096	0.02900739
1009.255	0.02917949
1009.414	0.02865519
1009.573	0.02944463
1009.732	0.02958815
1009.891	0.0291873
1010.05	0.02915151
1010.209	0.02952623
1010.368	0.02971164
1010.527	0.030207
1010.686	0.03076581
1010.845	0.03093815
1011.003	0.03189422
1011.162	0.03195416
1011.321	0.03167461
1011.48	0.0319799
1011.638	0.0320627
1011.797	0.03188214
1011.956	0.03130195
1012.115	0.03102447
1012.273	0.03109828
1012.432	0.03090006
1012.59	0.03078073
1012.749	0.02988852
1012.908	0.02924085
1013.066	0.03045429
1013.225	0.03108015
1013.383	0.03101439
1013.542	0.03064439
1013.7	0.02995617
1013.859	0.03057668
1014.017	0.0311963
1014.175	0.02940443
1014.334	0.02890535
1014.492	0.02866587
1014.65	0.02784496
1014.809	0.02841866
1014.967	0.02773509
1015.125	0.0267983
1015.284	0.02782283
1015.442	0.02742157
1015.6	0.02765795
1015.758	0.02870777
1015.916	0.02892862
1016.075	0.02961209
1016.233	0.03026976
1016.391	0.02985976
1016.549	0.02950453
1016.707	0.0290969
1016.865	0.02929559
1017.023	0.02928735
1017.181	0.02847646
1017.339	0.02763795
1017.497	0.02865719
1017.655	0.0293393
1017.813	0.03048225
1017.971	0.02967226
1018.129	0.02958025
1018.286	0.0298867
1018.444	0.03061063
1018.602	0.03097456
1018.76	0.03138139
1018.918	0.03147925
1019.075	0.0320467
1019.233	0.03300933
1019.391	0.0334667
1019.549	0.03437225
1019.706	0.03376267
1019.864	0.03376363
1020.022	0.0341127
1020.179	0.03516506
1020.337	0.03565422
1020.494	0.03682686
1020.652	0.03690954
1020.809	0.03686226
1020.967	0.03707676
1021.124	0.03632327
1021.282	0.03580825
1021.439	0.03523315
1021.597	0.03501364
1021.754	0.0350816
1021.911	0.03672771
1022.069	0.03569446
1022.226	0.03586617
1022.384	0.03696995
1022.541	0.03575215
1022.698	0.0349571
1022.855	0.03458063
1023.013	0.03493195
1023.17	0.03597898
1023.327	0.03745355
1023.484	0.03672017
1023.641	0.03810471
1023.798	0.03867013
1023.956	0.03874578
1024.113	0.03670011
1024.27	0.03608922
1024.427	0.03353547
1024.584	0.03495262
1024.741	0.03479934
1024.898	0.03448028
1025.055	0.0345856
1025.212	0.03488263
1025.369	0.03470696
1025.525	0.03588845
1025.682	0.03499483
1025.839	0.03599947
1025.996	0.03844095
1026.153	0.03788907
1026.31	0.04042964
1026.466	0.04133277
1026.623	0.04252864
1026.78	0.04270455
1026.937	0.04169155
1027.093	0.03992818
1027.25	0.04083751
1027.407	0.03971454
1027.563	0.0409865
1027.72	0.03992247
1027.876	0.03993232
1028.033	0.04104998
1028.19	0.04121086
1028.346	0.04073533
1028.503	0.03870098
1028.659	0.03798858
1028.816	0.03762114
1028.972	0.03862446
1029.128	0.03777667
1029.285	0.03716474
1029.441	0.03835647
1029.598	0.04022192
1029.754	0.04221948
1029.91	0.04362909
1030.067	0.04360457
1030.223	0.04458751
1030.379	0.04483555
1030.535	0.04729913
1030.691	0.04666373
1030.848	0.0446255
1031.004	0.04457215
1031.16	0.04650044
1031.316	0.04757634
1031.472	0.04994436
1031.628	0.04782418
1031.784	0.05139002
1031.94	0.0530669
1032.096	0.05317986
1032.252	0.0525673
1032.408	0.05365677
1032.564	0.0517533
1032.72	0.05511413
1032.876	0.05236293
1033.032	0.05316454
1033.188	0.05420432
1033.344	0.05192055
1033.5	0.04897879
1033.655	0.05068838
1033.811	0.04777485
1033.967	0.04891433
