Data from 1_mm_pl_10pc_Absorbance__0__16-58-18-331.txt Node

Date: Wed Mar 08 16:58:18 CET 2023
User: Ange
Spectrometer: FLMT08341
Trigger mode: 0
Integration Time (sec): 1.000000E-2
Scans to average: 400
Electric dark correction enabled: true
Nonlinearity correction enabled: false
Boxcar width: 3
XAxis mode: Wavelengths
Number of Pixels in Spectrum: 3648
>>>>>Begin Spectral Data<<<<<
345.271	0.03700823
345.487	0.03633099
345.704	0.02095373
345.921	0.03375661
346.137	0.05566931
346.354	0.04549814
346.571	0.0591398
346.787	0.07317003
347.004	-0.12845457
347.22	-0.16546899
347.437	-0.08744338
347.653	0.18099425
347.87	-0.15143644
348.086	-0.50072318
348.303	-0.04203144
348.519	0.29168956
348.736	0.30859154
348.952	0.32005358
349.169	0.33672583
349.385	0.35535701
349.601	0.35883995
349.818	0.35152758
350.034	0.34954275
350.251	0.34961405
350.467	0.35268365
350.683	0.34355279
350.9	0.34338666
351.116	0.3400507
351.332	0.34050427
351.549	0.3525974
351.765	0.36346878
351.981	0.37074729
352.197	0.38606189
352.414	0.40127675
352.63	0.41180998
352.846	0.42437653
353.062	0.42027444
353.278	0.41512743
353.495	0.42969699
353.711	0.42937555
353.927	0.43051871
354.143	0.43216428
354.359	0.4307475
354.575	0.42915246
354.792	0.44029331
355.008	0.42666771
355.224	0.42383776
355.44	0.41834214
355.656	0.41843185
355.872	0.4227714
356.088	0.44667961
356.304	0.44902698
356.52	0.452047
356.736	0.45938423
356.952	0.46736245
357.168	0.47087271
357.384	0.48038659
357.6	0.46454222
357.816	0.47279642
358.032	0.48550433
358.248	0.5008574
358.464	0.50312921
358.679	0.50834684
358.895	0.50685109
359.111	0.51975163
359.327	0.51256909
359.543	0.51608636
359.759	0.52207763
359.974	0.52225561
360.19	0.52378666
360.406	0.52699956
360.622	0.52199791
360.838	0.52255569
361.053	0.52608803
361.269	0.52484609
361.485	0.53072974
361.701	0.53637962
361.916	0.52956427
362.132	0.53248467
362.348	0.54042552
362.563	0.54390429
362.779	0.54230821
362.995	0.54709451
363.21	0.55289676
363.426	0.56144595
363.641	0.56479918
363.857	0.56863426
364.073	0.56493694
364.288	0.56411747
364.504	0.57793858
364.719	0.58024789
364.935	0.58271842
365.15	0.58895237
365.366	0.59268446
365.581	0.6060165
365.797	0.61167307
366.012	0.59963867
366.228	0.59432044
366.443	0.60288615
366.658	0.60567785
366.874	0.60189999
367.089	0.60672505
367.305	0.61037384
367.52	0.6191225
367.735	0.62292367
367.951	0.61967059
368.166	0.62494212
368.381	0.63886705
368.597	0.63324961
368.812	0.64031057
369.027	0.64223643
369.243	0.64857721
369.458	0.66787418
369.673	0.66996068
369.888	0.66941796
370.104	0.66659964
370.319	0.66838063
370.534	0.66782474
370.749	0.66813417
370.964	0.66697077
371.179	0.665584
371.395	0.66301688
371.61	0.67442864
371.825	0.66796239
372.04	0.67291489
372.255	0.67030302
372.47	0.66214554
372.685	0.65817972
372.9	0.65956908
373.115	0.65328272
373.33	0.6621628
373.545	0.66636217
373.76	0.67562293
373.975	0.67730106
374.19	0.68179423
374.405	0.68849006
374.62	0.70189307
374.835	0.71139699
375.05	0.71359329
375.265	0.71570555
375.48	0.72142248
375.695	0.73819587
375.91	0.73489586
376.125	0.72602086
376.339	0.71494875
376.554	0.71413844
376.769	0.71387599
376.984	0.71511407
377.199	0.71667
377.414	0.719
377.628	0.73259066
377.843	0.74185907
378.058	0.74728039
378.273	0.7575879
378.487	0.76388724
378.702	0.76376757
378.917	0.76661206
379.131	0.76123669
379.346	0.75527651
379.561	0.75428722
379.775	0.75195767
379.99	0.74577815
380.205	0.73923468
380.419	0.73693658
380.634	0.73091349
380.848	0.74071907
381.063	0.74382945
381.278	0.75283346
381.492	0.75386645
381.707	0.7660092
381.921	0.77066981
382.136	0.78533514
382.35	0.78334745
382.565	0.78017168
382.779	0.77927948
382.994	0.78483038
383.208	0.77821536
383.422	0.78873009
383.637	0.78852369
383.851	0.79651085
384.066	0.80623343
384.28	0.8110775
384.494	0.81285283
384.709	0.82293636
384.923	0.82114727
385.137	0.81797441
385.352	0.81733773
385.566	0.82147435
385.78	0.82015349
385.995	0.82010307
386.209	0.81666097
386.423	0.82320649
386.637	0.830529
386.852	0.82810473
387.066	0.82673015
387.28	0.82394325
387.494	0.83376989
387.708	0.84009904
387.923	0.83868274
388.137	0.84445001
388.351	0.8536536
388.565	0.86097222
388.779	0.86776585
388.993	0.8792987
389.207	0.88014437
389.421	0.88569211
389.635	0.88183289
389.85	0.88043079
390.064	0.8800831
390.278	0.8849138
390.492	0.88381713
390.706	0.88815347
390.92	0.89000347
391.134	0.89953953
391.348	0.91266077
391.561	0.91425912
391.775	0.91256183
391.989	0.90513503
392.203	0.90944936
392.417	0.9119824
392.631	0.92140911
392.845	0.91490725
393.059	0.92183531
393.273	0.92310875
393.486	0.92384753
393.7	0.91947836
393.914	0.92600608
394.128	0.91889482
394.342	0.92060121
394.555	0.91233969
394.769	0.91422427
394.983	0.92140947
395.197	0.92980174
395.41	0.93185714
395.624	0.93857158
395.838	0.94088049
396.051	0.95861854
396.265	0.95890987
396.479	0.96114974
396.692	0.96112914
396.906	0.95638509
397.12	0.95400271
397.333	0.96047934
397.547	0.95480425
397.76	0.96154427
397.974	0.96432655
398.187	0.96921427
398.401	0.97828332
398.614	0.98170416
398.828	0.98123206
399.041	0.98556894
399.255	0.9857322
399.468	0.98624177
399.682	0.98629796
399.895	0.98760491
400.109	0.98840266
400.322	0.98873828
400.536	0.98163178
400.749	0.99231577
400.962	0.9958093
401.176	0.9951903
401.389	0.99374625
401.602	0.98732509
401.816	0.9931984
402.029	1.00635561
402.242	1.00047254
402.456	1.00101618
402.669	0.99827578
402.882	0.99335896
403.095	1.00721656
403.309	1.00649096
403.522	1.00546391
403.735	1.0049333
403.948	1.00680034
404.161	1.02421148
404.375	1.0295182
404.588	1.02834144
404.801	1.03119393
405.014	1.02797524
405.227	1.03827561
405.44	1.04428744
405.653	1.04448017
405.866	1.04221188
406.079	1.04239656
406.293	1.04133225
406.506	1.04559815
406.719	1.04257521
406.932	1.03774524
407.145	1.03034949
407.358	1.04291806
407.571	1.03787399
407.784	1.0402446
407.996	1.04413632
408.209	1.0395196
408.422	1.03935235
408.635	1.04448454
408.848	1.04317655
409.061	1.03977013
409.274	1.03912526
409.487	1.03502882
409.7	1.03911001
409.912	1.04305541
410.125	1.04146372
410.338	1.03997105
410.551	1.04319397
410.764	1.04637999
410.976	1.04759453
411.189	1.04746501
411.402	1.04255452
411.615	1.04570201
411.827	1.04642428
412.04	1.05041898
412.253	1.04845084
412.465	1.04716136
412.678	1.04606827
412.891	1.05334771
413.103	1.04324299
413.316	1.04172411
413.529	1.04620551
413.741	1.05006065
413.954	1.0540692
414.166	1.05593969
414.379	1.05298085
414.591	1.0604788
414.804	1.05690758
415.016	1.05376274
415.229	1.04933487
415.441	1.04557124
415.654	1.04795683
415.866	1.04875762
416.079	1.05028836
416.291	1.05181833
416.504	1.05701644
416.716	1.05994315
416.928	1.0615977
417.141	1.05765563
417.353	1.05802661
417.566	1.05036731
417.778	1.05166754
417.99	1.04183391
418.203	1.03563135
418.415	1.03424813
418.627	1.03476946
418.839	1.03340669
419.052	1.04170283
419.264	1.03991461
419.476	1.04217528
419.688	1.04459298
419.901	1.04367568
420.113	1.04167735
420.325	1.0387972
420.537	1.03108695
420.749	1.03277914
420.961	1.0330117
421.174	1.03073154
421.386	1.02680245
421.598	1.02427158
421.81	1.02362435
422.022	1.02278226
422.234	1.02022786
422.446	1.01677635
422.658	1.01511796
422.87	1.01563918
423.082	1.01454184
423.294	1.01223009
423.506	1.01251812
423.718	1.00965037
423.93	1.00507096
424.142	1.00119416
424.354	0.99739807
424.566	0.99511832
424.778	0.99387991
424.99	0.99055731
425.202	0.9871873
425.414	0.98754019
425.625	0.98899318
425.837	0.98446862
426.049	0.98484333
426.261	0.98072205
426.473	0.97668204
426.684	0.97535551
426.896	0.97486986
427.108	0.96920277
427.32	0.9707438
427.531	0.96521212
427.743	0.96338446
427.955	0.96557039
428.167	0.96144249
428.378	0.957207
428.59	0.95634466
428.802	0.95277722
429.013	0.95040614
429.225	0.9477298
429.436	0.94209749
429.648	0.94131839
429.86	0.93993844
430.071	0.93763644
430.283	0.93600767
430.494	0.93285679
430.706	0.93053773
430.917	0.92662407
431.129	0.92399706
431.34	0.92022483
431.552	0.91773356
431.763	0.91330277
431.975	0.91264364
432.186	0.90716102
432.398	0.90530154
432.609	0.89885905
432.821	0.8960027
433.032	0.89267748
433.243	0.88855603
433.455	0.88435686
433.666	0.88280263
433.877	0.88092267
434.089	0.87771823
434.3	0.87271381
434.511	0.86650143
434.723	0.86376289
434.934	0.85877642
435.145	0.8526193
435.356	0.84681045
435.568	0.84384422
435.779	0.84008891
435.99	0.83537248
436.201	0.83124563
436.412	0.82716646
436.624	0.82629588
436.835	0.8238041
437.046	0.82157378
437.257	0.81886929
437.468	0.8188529
437.679	0.81669749
437.89	0.81388092
438.101	0.81078514
438.312	0.80711222
438.523	0.80264158
438.734	0.79889426
438.945	0.79486381
439.156	0.78936769
439.367	0.78615289
439.578	0.7825608
439.789	0.7772557
440	0.77425316
440.211	0.76932436
440.422	0.76540401
440.633	0.76315192
440.844	0.75830563
441.055	0.75363695
441.266	0.75152869
441.477	0.74639805
441.687	0.74329975
441.898	0.73929451
442.109	0.73420783
442.32	0.73030178
442.531	0.72497997
442.741	0.71831689
442.952	0.71433828
443.163	0.71063977
443.374	0.70593121
443.584	0.70153641
443.795	0.69781234
444.006	0.69459956
444.216	0.69151176
444.427	0.68654767
444.638	0.6817508
444.848	0.67765808
445.059	0.67373153
445.27	0.66907896
445.48	0.6643285
445.691	0.66047654
445.901	0.65727211
446.112	0.65329819
446.323	0.64854863
446.533	0.64411844
446.744	0.63949553
446.954	0.63511804
447.165	0.63068684
447.375	0.62712932
447.586	0.62330914
447.796	0.61988529
448.006	0.61607482
448.217	0.61311076
448.427	0.60936627
448.638	0.60519098
448.848	0.60029188
449.058	0.59609835
449.269	0.59205099
449.479	0.58796869
449.689	0.58347715
449.9	0.5795596
450.11	0.57559744
450.32	0.57251241
450.531	0.5678979
450.741	0.56351394
450.951	0.55961263
451.161	0.55538971
451.372	0.55156262
451.582	0.54900304
451.792	0.54437837
452.002	0.54045513
452.212	0.5363336
452.422	0.53245055
452.633	0.52868923
452.843	0.52526001
453.053	0.51960689
453.263	0.51618133
453.473	0.51240835
453.683	0.50949044
453.893	0.50521842
454.103	0.50189577
454.313	0.49795619
454.523	0.49476041
454.733	0.49096888
454.943	0.48806119
455.153	0.48433072
455.363	0.48095069
455.573	0.47723507
455.783	0.47373951
455.993	0.47015661
456.203	0.4671372
456.413	0.46353892
456.623	0.45976093
456.833	0.45684334
457.042	0.45335206
457.252	0.44982265
457.462	0.44631731
457.672	0.44266908
457.882	0.4391797
458.091	0.43572998
458.301	0.43187878
458.511	0.4284191
458.721	0.42491179
458.931	0.42169262
459.14	0.41865318
459.35	0.4157296
459.56	0.41296159
459.769	0.41015347
459.979	0.40698114
460.189	0.40416894
460.398	0.40090352
460.608	0.39796628
460.817	0.39481925
461.027	0.39184028
461.237	0.38885515
461.446	0.38603647
461.656	0.38342938
461.865	0.38068743
462.075	0.37785011
462.284	0.37528717
462.494	0.37227237
462.703	0.36939164
462.913	0.36668131
463.122	0.36357124
463.332	0.36077445
463.541	0.35814362
463.751	0.35523034
463.96	0.35270454
464.169	0.35001839
464.379	0.34760536
464.588	0.34508865
464.797	0.34267943
465.007	0.34012598
465.216	0.3376946
465.425	0.33530663
465.635	0.33307853
465.844	0.3306396
466.053	0.32837795
466.263	0.32607869
466.472	0.32360055
466.681	0.32142617
466.89	0.31916135
467.099	0.31689918
467.309	0.31470515
467.518	0.31270169
467.727	0.31056873
467.936	0.30843739
468.145	0.30628074
468.354	0.30414918
468.563	0.30201102
468.772	0.29994247
468.982	0.29777999
469.191	0.29596231
469.4	0.29394479
469.609	0.2921091
469.818	0.29030447
470.027	0.28856179
470.236	0.28668133
470.445	0.28499995
470.654	0.28286026
470.863	0.28112946
471.072	0.27937902
471.28	0.27745512
471.489	0.27578317
471.698	0.27418303
471.907	0.27254182
472.116	0.27119698
472.325	0.2696317
472.534	0.2681419
472.743	0.26670163
472.951	0.26525981
473.16	0.26370866
473.369	0.26216958
473.578	0.26070173
473.786	0.2593574
473.995	0.25781396
474.204	0.25651599
474.413	0.25498016
474.621	0.25366462
474.83	0.25256121
475.039	0.25127064
475.247	0.24994279
475.456	0.24883507
475.665	0.24757909
475.873	0.24630815
476.082	0.24491023
476.291	0.24351111
476.499	0.24239782
476.708	0.24110015
476.916	0.23996055
477.125	0.23887571
477.333	0.23788457
477.542	0.23699407
477.75	0.23595657
477.959	0.2349882
478.167	0.23411327
478.376	0.23301399
478.584	0.23201151
478.793	0.23107094
479.001	0.23014177
479.209	0.22929132
479.418	0.22838283
479.626	0.22756077
479.834	0.22675428
480.043	0.22598904
480.251	0.22519901
480.459	0.224382
480.668	0.22369141
480.876	0.22295981
481.084	0.22216987
481.293	0.22148639
481.501	0.22068973
481.709	0.22002665
481.917	0.21945287
482.125	0.21889672
482.334	0.21823312
482.542	0.21777754
482.75	0.21725618
482.958	0.21682266
483.166	0.21640691
483.374	0.21588298
483.583	0.21528715
483.791	0.21483162
483.999	0.21430361
484.207	0.2138794
484.415	0.21351399
484.623	0.21290408
484.831	0.21246601
485.039	0.21211199
485.247	0.21176562
485.455	0.21130753
485.663	0.21090411
485.871	0.21057526
486.079	0.21019882
486.287	0.20995716
486.495	0.20961277
486.702	0.20928838
486.91	0.20902621
487.118	0.20875106
487.326	0.20840755
487.534	0.2083423
487.742	0.20817189
487.95	0.2080039
488.157	0.20784612
488.365	0.20775397
488.573	0.20765371
488.781	0.20762386
488.988	0.20752245
489.196	0.20742243
489.404	0.20741274
489.612	0.20737585
489.819	0.20752774
490.027	0.20752171
490.235	0.20741362
490.442	0.20746571
490.65	0.20743785
490.857	0.20756462
491.065	0.20766886
491.273	0.20764638
491.48	0.207786
491.688	0.20792852
491.895	0.20808061
492.103	0.20821748
492.31	0.20825572
492.518	0.2082684
492.725	0.20829286
492.933	0.20836642
493.14	0.20844283
493.348	0.20848808
493.555	0.20864857
493.763	0.2088313
493.97	0.2091898
494.177	0.20959602
494.385	0.20991171
494.592	0.21025384
494.8	0.21052604
495.007	0.21087436
495.214	0.21119478
495.422	0.21149048
495.629	0.21175437
495.836	0.21207279
496.043	0.21250795
496.251	0.21295138
496.458	0.21327979
496.665	0.21364056
496.872	0.21401717
497.08	0.2143375
497.287	0.21470143
497.494	0.21503934
497.701	0.21547033
497.908	0.21596474
498.115	0.21638695
498.322	0.21680588
498.53	0.2173293
498.737	0.21782607
498.944	0.21828666
499.151	0.21870873
499.358	0.21918494
499.565	0.21970106
499.772	0.22022726
499.979	0.22071951
500.186	0.22130406
500.393	0.22186995
500.6	0.22243625
500.807	0.22301468
501.014	0.22354968
501.221	0.22419463
501.427	0.22480293
501.634	0.22539046
501.841	0.22596937
502.048	0.2265597
502.255	0.22702178
502.462	0.22764586
502.669	0.22817323
502.875	0.22873677
503.082	0.22925058
503.289	0.22980955
503.496	0.23041047
503.702	0.23109167
503.909	0.23177207
504.116	0.23249533
504.323	0.23322395
504.529	0.23396562
504.736	0.23474894
504.943	0.23548108
505.149	0.23632827
505.356	0.23719905
505.563	0.23799935
505.769	0.23883847
505.976	0.23963874
506.182	0.24049938
506.389	0.24138171
506.595	0.24223639
506.802	0.2429886
507.008	0.24371463
507.215	0.24450574
507.421	0.24534523
507.628	0.24608164
507.834	0.24685988
508.041	0.24765446
508.247	0.24850333
508.454	0.24942037
508.66	0.25026506
508.866	0.2510675
509.073	0.25208657
509.279	0.2530585
509.486	0.25385976
509.692	0.25468833
509.898	0.25556181
510.105	0.25648883
510.311	0.25744226
510.517	0.25829307
510.723	0.25914947
510.93	0.26009104
511.136	0.26107952
511.342	0.26204259
511.548	0.26296644
511.754	0.26392482
511.961	0.26490269
512.167	0.265891
512.373	0.2669316
512.579	0.26801423
512.785	0.26902665
512.991	0.27010669
513.197	0.27116376
513.404	0.2722764
513.61	0.27340034
513.816	0.27445644
514.022	0.2754276
514.228	0.27648252
514.434	0.27746493
514.64	0.27852484
514.846	0.27954791
515.052	0.28052313
515.258	0.28154399
515.464	0.28263952
515.669	0.28368358
515.875	0.28480826
516.081	0.28595342
516.287	0.28713441
516.493	0.28836234
516.699	0.28955485
516.905	0.29071531
517.111	0.29186897
517.316	0.29306771
517.522	0.2942095
517.728	0.29536303
517.934	0.29658563
518.139	0.29781553
518.345	0.29899097
518.551	0.30029227
518.757	0.30141107
518.962	0.30256738
519.168	0.3037204
519.374	0.30481728
519.579	0.30600008
519.785	0.30726966
519.991	0.30848678
520.196	0.30978852
520.402	0.31102631
520.607	0.31226652
520.813	0.31361714
521.018	0.31484408
521.224	0.31602106
521.429	0.31728024
521.635	0.31851329
521.84	0.3197775
522.046	0.32113343
522.251	0.32232853
522.457	0.32360335
522.662	0.32494941
522.868	0.32620317
523.073	0.32749214
523.279	0.32890266
523.484	0.33015613
523.689	0.33155158
523.895	0.33297977
524.1	0.33435647
524.305	0.33576282
524.511	0.33714625
524.716	0.33853196
524.921	0.33996982
525.126	0.34132273
525.332	0.34264369
525.537	0.34386402
525.742	0.34519252
525.947	0.34654568
526.153	0.34780461
526.358	0.34908218
526.563	0.35040714
526.768	0.35181207
526.973	0.35337442
527.178	0.35487106
527.383	0.35630399
527.588	0.35775243
527.794	0.35917403
527.999	0.36065026
528.204	0.36205879
528.409	0.36336694
528.614	0.36480661
528.819	0.36623286
529.024	0.36757767
529.229	0.36896629
529.434	0.3703688
529.639	0.37180294
529.843	0.37330392
530.048	0.37472474
530.253	0.3762337
530.458	0.3778494
530.663	0.37938509
530.868	0.38099854
531.073	0.38236114
531.278	0.38376289
531.482	0.38520548
531.687	0.38668939
531.892	0.38812922
532.097	0.38955707
532.302	0.39101409
532.506	0.39261259
532.711	0.39421322
532.916	0.39581079
533.12	0.39737232
533.325	0.39888962
533.53	0.40054873
533.734	0.40216229
533.939	0.40379321
534.144	0.40545501
534.348	0.40703556
534.553	0.40870027
534.757	0.41031943
534.962	0.4118633
535.167	0.41345796
535.371	0.41493232
535.576	0.41648557
535.78	0.41801218
535.985	0.41953362
536.189	0.42103321
536.394	0.42266055
536.598	0.42419575
536.803	0.42587536
537.007	0.42740058
537.211	0.4290184
537.416	0.43053555
537.62	0.43210991
537.825	0.43370254
538.029	0.43534622
538.233	0.43693328
538.438	0.4386177
538.642	0.44027569
538.846	0.4420951
539.05	0.44387625
539.255	0.44544595
539.459	0.44708642
539.663	0.44870768
539.867	0.45033106
540.072	0.4519078
540.276	0.45341333
540.48	0.45515713
540.684	0.45689708
540.888	0.45867045
541.092	0.46036839
541.297	0.46209265
541.501	0.4637647
541.705	0.46547459
541.909	0.46702394
542.113	0.46859017
542.317	0.47024664
542.521	0.47189684
542.725	0.47352286
542.929	0.47519927
543.133	0.47682209
543.337	0.47854627
543.541	0.48020684
543.745	0.48163429
543.949	0.48334393
544.153	0.4849297
544.357	0.48652779
544.56	0.4882642
544.764	0.48992415
544.968	0.49163822
545.172	0.4934
545.376	0.49517612
545.58	0.4970183
545.783	0.49890144
545.987	0.50055423
546.191	0.50224721
546.395	0.50404299
546.598	0.50597013
546.802	0.5077222
547.006	0.50951139
547.21	0.51100964
547.413	0.51276801
547.617	0.51452222
547.821	0.51623491
548.024	0.51796944
548.228	0.51961324
548.431	0.52125596
548.635	0.52307364
548.839	0.52469291
549.042	0.52639647
549.246	0.52800495
549.449	0.52959665
549.653	0.53131064
549.856	0.53299913
550.06	0.53472729
550.263	0.53662528
550.467	0.53842146
550.67	0.54028431
550.874	0.54202674
551.077	0.54386549
551.28	0.54568424
551.484	0.54747991
551.687	0.54923333
551.891	0.55105387
552.094	0.55278759
552.297	0.55471162
552.501	0.55648536
552.704	0.55829029
552.907	0.560027
553.11	0.56170302
553.314	0.56337046
553.517	0.56495048
553.72	0.56660103
553.923	0.56833489
554.127	0.570124
554.33	0.57177778
554.533	0.57359149
554.736	0.57516064
554.939	0.57696905
555.142	0.57868441
555.345	0.58034433
555.549	0.58208441
555.752	0.58385945
555.955	0.58547928
556.158	0.58735453
556.361	0.58900242
556.564	0.59070031
556.767	0.5924718
556.97	0.59414411
557.173	0.59596049
557.376	0.59776137
557.579	0.59943121
557.782	0.60125094
557.984	0.60297891
558.187	0.60465287
558.39	0.60635572
558.593	0.60802696
558.796	0.60971835
558.999	0.61135902
559.202	0.61304238
559.404	0.61460683
559.607	0.6163234
559.81	0.61806555
560.013	0.61963138
560.216	0.62128425
560.418	0.62312414
560.621	0.62482029
560.824	0.62680551
561.026	0.62850177
561.229	0.63018016
561.432	0.63196394
561.634	0.63375697
561.837	0.63530162
562.04	0.63702309
562.242	0.63856461
562.445	0.64019577
562.647	0.64181416
562.85	0.64337765
563.053	0.64486933
563.255	0.64659504
563.458	0.64820162
563.66	0.64986774
563.863	0.6516026
564.065	0.65338164
564.268	0.65508844
564.47	0.65684439
564.672	0.65842132
564.875	0.66013893
565.077	0.6617645
565.28	0.66331735
565.482	0.6650083
565.684	0.66667986
565.887	0.66838866
566.089	0.67011726
566.291	0.67166444
566.494	0.67332988
566.696	0.67493567
566.898	0.67664766
567.1	0.67840631
567.303	0.67999103
567.505	0.68165573
567.707	0.68323098
567.909	0.68471494
568.111	0.68632066
568.314	0.68773506
568.516	0.68914302
568.718	0.69080309
568.92	0.69230599
569.122	0.69391218
569.324	0.69556548
569.526	0.69709096
569.728	0.69876655
569.93	0.70034074
570.132	0.70183325
570.334	0.70344257
570.536	0.7049586
570.738	0.70650055
570.94	0.70795453
571.142	0.70953113
571.344	0.71096022
571.546	0.7123372
571.748	0.71388573
571.95	0.715303
572.152	0.71673884
572.354	0.71836362
572.555	0.71988372
572.757	0.7216126
572.959	0.72315192
573.161	0.72445296
573.363	0.72613708
573.564	0.72771282
573.766	0.72909856
573.968	0.73043627
574.17	0.73153676
574.371	0.73302926
574.573	0.73454833
574.775	0.73578157
574.976	0.73716684
575.178	0.73850435
575.38	0.73972023
575.581	0.74109044
575.783	0.74242561
575.985	0.74381104
576.186	0.74535448
576.388	0.74672426
576.589	0.74813672
576.791	0.74973593
576.992	0.75133083
577.194	0.75274752
577.395	0.75402946
577.597	0.75532874
577.798	0.7567658
578	0.75813576
578.201	0.75942397
578.402	0.7607447
578.604	0.76191236
578.805	0.76330182
579.007	0.76459523
579.208	0.76583997
579.409	0.76710421
579.611	0.76819854
579.812	0.76957976
580.013	0.77090907
580.215	0.77191037
580.416	0.77312135
580.617	0.77428683
580.818	0.77563004
581.019	0.77697086
581.221	0.77805965
581.422	0.77929632
581.623	0.78078625
581.824	0.78180836
582.025	0.78299724
582.226	0.78417913
582.428	0.78545051
582.629	0.78674495
582.83	0.7878996
583.031	0.78896585
583.232	0.79041117
583.433	0.79170722
583.634	0.79266292
583.835	0.79369429
584.036	0.79466618
584.237	0.79568444
584.438	0.79669108
584.639	0.79746191
584.84	0.79836354
585.041	0.79925582
585.242	0.800184
585.442	0.80112334
585.643	0.80230008
585.844	0.80336428
586.045	0.80469843
586.246	0.80553515
586.447	0.80662874
586.647	0.80755246
586.848	0.80855282
587.049	0.80939732
587.25	0.81019833
587.45	0.81079921
587.651	0.8118561
587.852	0.81286021
588.053	0.81409646
588.253	0.81497671
588.454	0.81609702
588.655	0.81711717
588.855	0.81813909
589.056	0.81918498
589.256	0.82014135
589.457	0.82085085
589.658	0.82189089
589.858	0.82251341
590.059	0.82351207
590.259	0.82452689
590.46	0.82513544
590.66	0.8259141
590.861	0.82666655
591.061	0.82733597
591.262	0.82834981
591.462	0.82906559
591.662	0.82974729
591.863	0.83054779
592.063	0.83138985
592.264	0.83218866
592.464	0.83301182
592.664	0.83372355
592.865	0.83450148
593.065	0.83506881
593.265	0.83598826
593.465	0.83657294
593.666	0.83719334
593.866	0.83780642
594.066	0.83842141
594.266	0.83898402
594.467	0.83943832
594.667	0.83983396
594.867	0.84041319
595.067	0.84091434
595.267	0.84147429
595.467	0.84196866
595.668	0.84259278
595.868	0.84340932
596.068	0.8440531
596.268	0.84462984
596.468	0.84524741
596.668	0.84593419
596.868	0.84644302
597.068	0.84698457
597.268	0.84753399
597.468	0.84798699
597.668	0.84842259
597.868	0.84885542
598.068	0.84920012
598.268	0.8496331
598.467	0.85003712
598.667	0.85038519
598.867	0.85072146
599.067	0.85136333
599.267	0.85175318
599.467	0.85219739
599.667	0.85241721
599.866	0.85288674
600.066	0.85344587
600.266	0.85380375
600.466	0.85403006
600.665	0.8544279
600.865	0.85457336
601.065	0.85510251
601.264	0.85512954
601.464	0.85531038
601.664	0.85576821
601.863	0.85603225
602.063	0.85637288
602.263	0.85651783
602.462	0.85682995
602.662	0.85733081
602.861	0.8574712
603.061	0.85766711
603.26	0.85785453
603.46	0.8579415
603.659	0.85839542
603.859	0.85866335
604.058	0.85876165
604.258	0.85901592
604.457	0.85948745
604.657	0.85964062
604.856	0.85969638
605.056	0.85991014
605.255	0.85981218
605.454	0.85990898
605.654	0.85990776
605.853	0.85971817
606.052	0.85967163
606.252	0.85984739
606.451	0.85987942
606.65	0.86029278
606.849	0.8601863
607.049	0.86023457
607.248	0.86019825
607.447	0.86041322
607.646	0.86058682
607.845	0.86042924
608.045	0.86006251
608.244	0.86021489
608.443	0.86020309
608.642	0.86026391
608.841	0.86010872
609.04	0.85985471
609.239	0.85996104
609.438	0.85989576
609.637	0.85983971
609.836	0.85978949
610.035	0.85961469
610.234	0.85952038
610.433	0.85939573
610.632	0.85910436
610.831	0.85899841
611.03	0.85876656
611.229	0.85886901
611.428	0.85877897
611.627	0.85870246
611.826	0.85858591
612.025	0.85857032
612.224	0.85829919
612.422	0.85805375
612.621	0.85753635
612.82	0.8572445
613.019	0.85690092
613.218	0.85669917
613.416	0.85626914
613.615	0.85600769
613.814	0.85560228
614.012	0.85534742
614.211	0.85491775
614.41	0.85462477
614.608	0.85428311
614.807	0.85400316
615.006	0.85387982
615.204	0.85347807
615.403	0.85330874
615.602	0.85306441
615.8	0.85261579
615.999	0.85191486
616.197	0.85148579
616.396	0.85078348
616.594	0.8503631
616.793	0.84976261
616.991	0.84914733
617.19	0.84854369
617.388	0.84840916
617.586	0.84783343
617.785	0.84735218
617.983	0.84690844
618.182	0.84628293
618.38	0.84569719
618.578	0.84527214
618.777	0.84461863
618.975	0.84418067
619.173	0.84369827
619.372	0.84323675
619.57	0.8426856
619.768	0.84236462
619.966	0.84179747
620.165	0.84099473
620.363	0.84044694
620.561	0.83975521
620.759	0.83905848
620.957	0.83855891
621.155	0.83776846
621.354	0.83714562
621.552	0.83690971
621.75	0.83615259
621.948	0.83568167
622.146	0.83506066
622.344	0.8341044
622.542	0.83355388
622.74	0.83267931
622.938	0.83177576
623.136	0.83113783
623.334	0.83047812
623.532	0.82958339
623.73	0.82911602
623.928	0.82839172
624.126	0.82792419
624.324	0.8272939
624.522	0.82638945
624.719	0.82528087
624.917	0.82472085
625.115	0.8238335
625.313	0.82316876
625.511	0.82246945
625.708	0.82154685
625.906	0.82086758
626.104	0.8202144
626.302	0.81941565
626.499	0.81866087
626.697	0.81763952
626.895	0.81655748
627.093	0.81579356
627.29	0.81496458
627.488	0.81401388
627.686	0.81314713
627.883	0.81213593
628.081	0.81106908
628.278	0.81039388
628.476	0.80938348
628.673	0.80841815
628.871	0.80770283
629.068	0.80667556
629.266	0.80576842
629.463	0.8049706
629.661	0.80386968
629.858	0.80291575
630.056	0.80191928
630.253	0.8009137
630.451	0.80002839
630.648	0.79899514
630.845	0.79791446
631.043	0.79690042
631.24	0.79608244
631.438	0.79514307
631.635	0.79403927
631.832	0.79285165
632.029	0.79195029
632.227	0.79090512
632.424	0.78986495
632.621	0.78855255
632.818	0.78741057
633.016	0.78634485
633.213	0.78520099
633.41	0.78397564
633.607	0.78280556
633.804	0.78166592
634.001	0.7804595
634.199	0.77913936
634.396	0.7779396
634.593	0.77672964
634.79	0.77574839
634.987	0.77467642
635.184	0.77352267
635.381	0.77255528
635.578	0.77161495
635.775	0.77050543
635.972	0.76954997
636.169	0.76825568
636.366	0.7671089
636.563	0.7659242
636.76	0.76466206
636.957	0.76345569
637.153	0.76208586
637.35	0.76094603
637.547	0.75984896
637.744	0.75854383
637.941	0.757424
638.138	0.7561582
638.334	0.75495889
638.531	0.7539502
638.728	0.75267797
638.925	0.75146745
639.121	0.75033395
639.318	0.74893654
639.515	0.74763101
639.711	0.74642703
639.908	0.74485263
640.105	0.74353509
640.301	0.74218335
640.498	0.74085198
640.695	0.73976366
640.891	0.73856595
641.088	0.73721515
641.284	0.73612323
641.481	0.73484614
641.677	0.73349022
641.874	0.73211618
642.07	0.73069299
642.267	0.72956706
642.463	0.72815592
642.66	0.72700124
642.856	0.72559809
643.053	0.72410498
643.249	0.72274715
643.445	0.72138074
643.642	0.71979843
643.838	0.71854372
644.034	0.71703511
644.231	0.71565037
644.427	0.71436156
644.623	0.71295849
644.82	0.71158317
645.016	0.71011414
645.212	0.70849506
645.408	0.70700257
645.604	0.70570453
645.801	0.70432796
645.997	0.70283462
646.193	0.70137305
646.389	0.70011577
646.585	0.69890058
646.781	0.6975095
646.977	0.69616107
647.173	0.69472874
647.37	0.69359196
647.566	0.69226411
647.762	0.69088516
647.958	0.68962362
648.154	0.68814397
648.35	0.68660585
648.546	0.68499358
648.742	0.68339857
648.937	0.68174616
649.133	0.68022851
649.329	0.67856646
649.525	0.67717165
649.721	0.67561271
649.917	0.6742622
650.113	0.67263605
650.309	0.67127882
650.504	0.66965597
650.7	0.66813347
650.896	0.66653033
651.092	0.66503099
651.287	0.6635462
651.483	0.6621123
651.679	0.66054832
651.875	0.65916636
652.07	0.65766399
652.266	0.65629684
652.462	0.65489862
652.657	0.65341669
652.853	0.65194912
653.048	0.65049594
653.244	0.64884654
653.44	0.64725944
653.635	0.64549362
653.831	0.64392752
654.026	0.64250611
654.222	0.64084861
654.417	0.63936266
654.613	0.63782293
654.808	0.6361466
655.004	0.63469268
655.199	0.63297246
655.394	0.63128019
655.59	0.62981593
655.785	0.62802053
655.98	0.62642331
656.176	0.62487629
656.371	0.62348002
656.566	0.62202262
656.762	0.62035642
656.957	0.61869614
657.152	0.61722486
657.348	0.61563635
657.543	0.61408406
657.738	0.61229898
657.933	0.61064822
658.128	0.60905194
658.324	0.60744192
658.519	0.60588859
658.714	0.60430782
658.909	0.60271928
659.104	0.60118139
659.299	0.59958337
659.494	0.59803474
659.689	0.59648089
659.884	0.59473736
660.079	0.59302028
660.274	0.59133314
660.469	0.58971516
660.664	0.58815768
660.859	0.58648445
661.054	0.58484603
661.249	0.58328971
661.444	0.5817534
661.639	0.58013469
661.834	0.57839862
662.029	0.57676468
662.224	0.57516161
662.418	0.57355117
662.613	0.5720429
662.808	0.57035943
663.003	0.56885623
663.198	0.56725402
663.392	0.56547213
663.587	0.56392693
663.782	0.56211278
663.977	0.5602158
664.171	0.55856303
664.366	0.55679161
664.561	0.55509393
664.755	0.55342602
664.95	0.55173972
665.144	0.55027954
665.339	0.54892408
665.534	0.54746118
665.728	0.54597456
665.923	0.54445059
666.117	0.54305184
666.312	0.54154871
666.506	0.54001235
666.701	0.53831533
666.895	0.53669722
667.09	0.53496421
667.284	0.53347702
667.479	0.53177212
667.673	0.53015238
667.867	0.52848907
668.062	0.52686797
668.256	0.52522943
668.45	0.52385403
668.645	0.52205786
668.839	0.52047926
669.033	0.51871822
669.228	0.51702298
669.422	0.51537632
669.616	0.5137052
669.81	0.51194765
670.004	0.51046676
670.199	0.50892164
670.393	0.50737573
670.587	0.50580082
670.781	0.50423996
670.975	0.50270341
671.169	0.50099683
671.363	0.49929932
671.558	0.49758004
671.752	0.49597201
671.946	0.49448304
672.14	0.49294604
672.334	0.49132741
672.528	0.48991617
672.722	0.48824109
672.916	0.48672413
673.11	0.48505881
673.304	0.48346612
673.497	0.48161124
673.691	0.47996459
673.885	0.47817007
674.079	0.47663443
674.273	0.47494349
674.467	0.47339379
674.661	0.47174296
674.854	0.47027866
675.048	0.46868385
675.242	0.46728325
675.436	0.46569572
675.629	0.46411283
675.823	0.4624304
676.017	0.46086969
676.211	0.45932153
676.404	0.45779991
676.598	0.45616248
676.792	0.45470671
676.985	0.45320401
677.179	0.45161953
677.372	0.44999646
677.566	0.44830858
677.76	0.44661873
677.953	0.44494258
678.147	0.44335313
678.34	0.44180883
678.534	0.44035391
678.727	0.43894948
678.921	0.43762939
679.114	0.43623466
679.307	0.43485123
679.501	0.43327698
679.694	0.43167541
679.888	0.43007168
680.081	0.42846119
680.274	0.42675593
680.468	0.42517643
680.661	0.42355113
680.854	0.42209113
681.048	0.42050476
681.241	0.41886608
681.434	0.41723515
681.627	0.41559452
681.821	0.4139441
682.014	0.41243461
682.207	0.41080784
682.4	0.4094141
682.593	0.40803414
682.786	0.40659797
682.98	0.40522331
683.173	0.40392366
683.366	0.40251193
683.559	0.4011137
683.752	0.39961783
683.945	0.39816453
684.138	0.39672637
684.331	0.39511646
684.524	0.39353568
684.717	0.39187675
684.91	0.39032101
685.103	0.38871845
685.296	0.3870744
685.489	0.38542308
685.682	0.38387899
685.874	0.38239115
686.067	0.38088918
686.26	0.37941022
686.453	0.3779489
686.646	0.37648973
686.839	0.37516012
687.031	0.37383145
687.224	0.37240295
687.417	0.37120041
687.61	0.36985746
687.802	0.36853319
687.995	0.36721275
688.188	0.36584505
688.38	0.36443732
688.573	0.36302942
688.766	0.36153469
688.958	0.35999999
689.151	0.35847877
689.343	0.35708822
689.536	0.35556927
689.729	0.35407251
689.921	0.35263069
690.114	0.35112748
690.306	0.34964405
690.499	0.34828685
690.691	0.34686358
690.884	0.3455082
691.076	0.34422266
691.268	0.34282142
691.461	0.34144313
691.653	0.34020501
691.846	0.33895005
692.038	0.33765038
692.23	0.33621667
692.423	0.33479957
692.615	0.33346409
692.807	0.33211978
692.999	0.3307198
693.192	0.32928215
693.384	0.32794275
693.576	0.32676799
693.768	0.32563119
693.961	0.32436531
694.153	0.3231477
694.345	0.32187243
694.537	0.32056978
694.729	0.31938174
694.921	0.31805968
695.113	0.316596
695.305	0.31519761
695.498	0.31373585
695.69	0.31241547
695.882	0.31103021
696.074	0.30956481
696.266	0.30813523
696.458	0.30677244
696.65	0.3054953
696.842	0.30428717
697.033	0.30305123
697.225	0.30181887
697.417	0.30059151
697.609	0.29927862
697.801	0.29797246
697.993	0.29662988
698.185	0.29521885
698.376	0.29381859
698.568	0.29242452
698.76	0.29114007
698.952	0.28991887
699.144	0.2887282
699.335	0.2875399
699.527	0.28638755
699.719	0.28517932
699.91	0.28398883
700.102	0.28263178
700.294	0.2814374
700.485	0.28024493
700.677	0.27902072
700.869	0.27790744
701.06	0.27678647
701.252	0.27567371
701.443	0.2745763
701.635	0.27335039
701.826	0.27214424
702.018	0.27095005
702.209	0.2697482
702.401	0.26848476
702.592	0.26729482
702.784	0.26615456
702.975	0.26505396
703.166	0.26400596
703.358	0.26290594
703.549	0.26177249
703.741	0.26070743
703.932	0.25956314
704.123	0.25841023
704.315	0.25725167
704.506	0.25615329
704.697	0.25500173
704.888	0.25400253
705.08	0.25297464
705.271	0.25200699
705.462	0.25093855
705.653	0.24983906
705.844	0.24860634
706.035	0.24746368
706.227	0.24618012
706.418	0.24491406
706.609	0.24367532
706.8	0.2425025
706.991	0.2413435
707.182	0.24028433
707.373	0.23916756
707.564	0.23816189
707.755	0.23707475
707.946	0.23603873
708.137	0.23500652
708.328	0.233943
708.519	0.23288845
708.71	0.23183499
708.901	0.23072854
709.092	0.22980486
709.283	0.22876045
709.473	0.2277152
709.664	0.2268117
709.855	0.22578242
710.046	0.22485437
710.237	0.22376279
710.427	0.22253497
710.618	0.22144787
710.809	0.22035637
711	0.21923392
711.19	0.21819482
711.381	0.21707852
711.572	0.21605712
711.762	0.21513746
711.953	0.21421422
712.144	0.213252
712.334	0.21230104
712.525	0.21137007
712.715	0.21044257
712.906	0.20942399
713.097	0.20843753
713.287	0.20746236
713.478	0.20651454
713.668	0.2056129
713.859	0.20475109
714.049	0.20389976
714.239	0.20317361
714.43	0.20229063
714.62	0.20142823
714.811	0.20052348
715.001	0.19962818
715.191	0.19865233
715.382	0.19765394
715.572	0.19680404
715.762	0.19604183
715.953	0.19524495
716.143	0.19446062
716.333	0.19360212
716.523	0.19282602
716.714	0.19211354
716.904	0.19125133
717.094	0.19044406
717.284	0.18950883
717.474	0.18857484
717.664	0.18772403
717.855	0.18682745
718.045	0.18594208
718.235	0.18511146
718.425	0.18432193
718.615	0.18357205
718.805	0.18285291
718.995	0.18209118
719.185	0.18132784
719.375	0.18049442
719.565	0.17968345
719.755	0.17878036
719.945	0.17790218
720.135	0.17705658
720.325	0.17619739
720.515	0.17540733
720.704	0.17467172
720.894	0.17386835
721.084	0.17313027
721.274	0.17244596
721.464	0.17167949
721.654	0.17099967
721.843	0.170243
722.033	0.16952662
722.223	0.16881936
722.413	0.16811066
722.602	0.16732292
722.792	0.16653197
722.982	0.1657132
723.171	0.16491513
723.361	0.1641486
723.55	0.16335454
723.74	0.16252008
723.93	0.1617981
724.119	0.16110092
724.309	0.16042118
724.498	0.15972433
724.688	0.15901194
724.877	0.15831126
725.067	0.15757656
725.256	0.15679661
725.446	0.15607701
725.635	0.15526916
725.825	0.15448191
726.014	0.15370044
726.203	0.15288465
726.393	0.15210077
726.582	0.1513087
726.771	0.15058683
726.961	0.14991311
727.15	0.1492551
727.339	0.14854643
727.529	0.14791559
727.718	0.14727062
727.907	0.14663237
728.096	0.14587998
728.286	0.1451557
728.475	0.14443197
728.664	0.14368491
728.853	0.1429935
729.042	0.14229552
729.231	0.14160955
729.42	0.14099307
729.609	0.1403034
729.799	0.13952663
729.988	0.13889366
730.177	0.13822057
730.366	0.1375018
730.555	0.13684061
730.744	0.13614306
730.933	0.13551358
731.122	0.13495913
731.31	0.13430965
731.499	0.13365135
731.688	0.13307855
731.877	0.13247512
732.066	0.1319526
732.255	0.13138794
732.444	0.13080414
732.632	0.13028229
732.821	0.12975427
733.01	0.12922287
733.199	0.12866634
733.388	0.12810311
733.576	0.12763611
733.765	0.12718598
733.954	0.12660997
734.142	0.12606744
734.331	0.12546468
734.52	0.12486862
734.708	0.12419664
734.897	0.12352474
735.086	0.12280974
735.274	0.1221653
735.463	0.12155776
735.651	0.12099523
735.84	0.12052653
736.028	0.12008711
736.217	0.11956001
736.405	0.11907651
736.594	0.11858739
736.782	0.11802753
736.971	0.11746642
737.159	0.11686101
737.347	0.11628152
737.536	0.11570029
737.724	0.11511685
737.912	0.11452773
738.101	0.11397949
738.289	0.11348891
738.477	0.11297641
738.666	0.11237493
738.854	0.11185297
739.042	0.11134066
739.23	0.11083791
739.418	0.11039599
739.607	0.10987623
739.795	0.10927979
739.983	0.10876485
740.171	0.10824575
740.359	0.10776596
740.547	0.10735019
740.735	0.10686454
740.923	0.10642895
741.112	0.10608225
741.3	0.10575254
741.488	0.10538192
741.676	0.10489256
741.864	0.10434919
742.052	0.10384115
742.239	0.10326701
742.427	0.10272243
742.615	0.10210309
742.803	0.10154535
742.991	0.10113169
743.179	0.10074762
743.367	0.10034188
743.555	0.0999702
743.742	0.09948064
743.93	0.09912425
744.118	0.09862845
744.306	0.09811919
744.494	0.09768288
744.681	0.09725429
744.869	0.0968617
745.057	0.0964849
745.244	0.0960391
745.432	0.09564763
745.62	0.09527735
745.807	0.09494201
745.995	0.09460098
746.182	0.09430573
746.37	0.09398766
746.558	0.09365275
746.745	0.09335617
746.933	0.0930235
747.12	0.09260655
747.308	0.0922056
747.495	0.09167408
747.683	0.09124666
747.87	0.0908507
748.057	0.09049701
748.245	0.09012393
748.432	0.08973211
748.62	0.08930995
748.807	0.0889799
748.994	0.08865391
749.182	0.08833905
749.369	0.08801247
749.556	0.0877851
749.743	0.08758945
749.931	0.08739722
750.118	0.08718247
750.305	0.08688037
750.492	0.08653306
750.68	0.08622713
750.867	0.08588957
751.054	0.08548658
751.241	0.08507231
751.428	0.08462109
751.615	0.08416682
751.802	0.08371314
751.989	0.08316671
752.176	0.082654
752.363	0.08214298
752.55	0.08164417
752.737	0.08121946
752.924	0.08089701
753.111	0.08066898
753.298	0.08049546
753.485	0.08025844
753.672	0.08003816
753.859	0.07985082
754.046	0.07960466
754.233	0.07939251
754.42	0.07914091
754.606	0.07884813
754.793	0.07851299
754.98	0.07818945
755.167	0.07783077
755.353	0.07759207
755.54	0.07728281
755.727	0.07705337
755.914	0.07684407
756.1	0.07666633
756.287	0.0765196
756.474	0.07634329
756.66	0.07606678
756.847	0.07573385
757.033	0.07533229
757.22	0.07487988
757.407	0.07437755
757.593	0.07387226
757.78	0.07347629
757.966	0.07306412
758.153	0.07269703
758.339	0.07230132
758.526	0.07201974
758.712	0.07184358
758.898	0.07170856
759.085	0.07150913
759.271	0.07138922
759.458	0.07132318
759.644	0.07121054
759.83	0.07106466
760.017	0.07083099
760.203	0.07064443
760.389	0.07039636
760.576	0.07010938
760.762	0.0697646
760.948	0.06951684
761.134	0.06924925
761.32	0.06907949
761.507	0.0688086
761.693	0.06863849
761.879	0.06848836
762.065	0.06843475
762.251	0.06837794
762.437	0.06833423
762.623	0.06819799
762.809	0.06804037
762.995	0.06784683
763.181	0.06763563
763.367	0.06737307
763.553	0.06701832
763.739	0.06658913
763.925	0.06616794
764.111	0.06578342
764.297	0.06540876
764.483	0.06503366
764.669	0.06467119
764.855	0.06443972
765.041	0.06427258
765.227	0.06407275
765.412	0.06388028
765.598	0.06376335
765.784	0.06368688
765.97	0.06356866
766.156	0.06335911
766.341	0.0631872
766.527	0.06305028
766.713	0.06291103
766.898	0.06274261
767.084	0.06247448
767.27	0.06219965
767.455	0.06189746
767.641	0.06164372
767.827	0.06138821
768.012	0.06116497
768.198	0.06091126
768.383	0.06078639
768.569	0.0607376
768.754	0.06074997
768.94	0.06065028
769.125	0.06057878
769.311	0.06052375
769.496	0.06048645
769.682	0.06038524
769.867	0.06023523
770.052	0.06004496
770.238	0.05982362
770.423	0.05959451
770.608	0.05933822
770.794	0.05904682
770.979	0.05880182
771.164	0.05862859
771.35	0.05839417
771.535	0.05828556
771.72	0.05814023
771.905	0.05804419
772.09	0.05787362
772.276	0.05769897
772.461	0.05744547
772.646	0.0573221
772.831	0.05715229
773.016	0.05697951
773.201	0.05675049
773.386	0.05667103
773.571	0.05657971
773.756	0.05652929
773.941	0.05641562
774.126	0.05634293
774.311	0.05628333
774.496	0.05627373
774.681	0.05617106
774.866	0.05604171
775.051	0.05586523
775.236	0.05579569
775.421	0.05570717
775.606	0.05566693
775.791	0.05546917
775.976	0.05533095
776.16	0.0551959
776.345	0.05514279
776.53	0.055009
776.715	0.05491525
776.899	0.05474897
777.084	0.05464188
777.269	0.05461514
777.454	0.05453838
777.638	0.05449786
777.823	0.05442783
778.008	0.05441036
778.192	0.05448074
778.377	0.05451564
778.561	0.05446196
778.746	0.05448584
778.931	0.05436139
779.115	0.05428471
779.3	0.05404453
779.484	0.05380409
779.669	0.05365943
779.853	0.05346001
780.037	0.0532231
780.222	0.0530482
780.406	0.05285915
780.591	0.05276685
780.775	0.05266949
780.959	0.05249291
781.144	0.05229816
781.328	0.05212511
781.512	0.05194465
781.697	0.05175071
781.881	0.05160803
782.065	0.05138127
782.249	0.05120341
782.434	0.05108649
782.618	0.05098285
782.802	0.05090786
782.986	0.0508352
783.17	0.05069106
783.354	0.05064111
783.539	0.05077798
783.723	0.05085864
783.907	0.05087692
784.091	0.05088918
784.275	0.05084694
784.459	0.05079396
784.643	0.05066565
784.827	0.05044192
785.011	0.050148
785.195	0.04984875
785.379	0.04954313
785.563	0.0493002
785.747	0.04904517
785.93	0.04878018
786.114	0.04845968
786.298	0.04818673
786.482	0.04802553
786.666	0.0478623
786.85	0.04772913
787.033	0.04766985
787.217	0.0476661
787.401	0.0477047
787.585	0.04784208
787.768	0.04793123
787.952	0.04798694
788.136	0.04802068
788.319	0.04800112
788.503	0.04803038
788.687	0.04807566
788.87	0.04799063
789.054	0.04784502
789.237	0.04780753
789.421	0.04779907
789.605	0.04784267
789.788	0.04774992
789.972	0.04758998
790.155	0.04748761
790.338	0.04744578
790.522	0.04731827
790.705	0.04716905
790.889	0.04692093
791.072	0.04676936
791.256	0.04662571
791.439	0.04656361
791.622	0.04645899
791.806	0.04637297
791.989	0.04626001
792.172	0.04618507
792.355	0.04611909
792.539	0.04599794
792.722	0.04575839
792.905	0.04548894
793.088	0.04528459
793.271	0.04508168
793.455	0.04489787
793.638	0.04469743
793.821	0.04453265
794.004	0.04442345
794.187	0.04448926
794.37	0.04457987
794.553	0.04463694
794.736	0.04457862
794.919	0.04447865
795.102	0.04437051
795.285	0.04432468
795.468	0.04428044
795.651	0.04413251
795.834	0.04399229
796.017	0.04398371
796.2	0.04402828
796.383	0.04414679
796.566	0.0442235
796.749	0.04423807
796.931	0.04428234
797.114	0.04434663
797.297	0.04438326
797.48	0.04446168
797.663	0.04443783
797.845	0.0443796
798.028	0.04432648
798.211	0.04421871
798.393	0.04419712
798.576	0.0441367
798.759	0.04402387
798.941	0.04409364
799.124	0.04421543
799.307	0.04429926
799.489	0.04441661
799.672	0.04442101
799.854	0.04443727
800.037	0.0444612
800.219	0.04434096
800.402	0.04420255
800.584	0.04409074
800.767	0.04399924
800.949	0.04393449
801.132	0.04386708
801.314	0.04375789
801.496	0.04374292
801.679	0.04368079
801.861	0.04356313
802.043	0.04344307
802.226	0.04334565
802.408	0.04320375
802.59	0.04314293
802.772	0.04294983
802.955	0.04291341
803.137	0.0428529
803.319	0.04278276
803.501	0.04271302
803.684	0.04269712
803.866	0.04260835
804.048	0.04262159
804.23	0.04261228
804.412	0.04266126
804.594	0.04268428
804.776	0.04278214
804.958	0.04292828
805.14	0.04302328
805.322	0.04308482
805.504	0.04303457
805.686	0.04297175
805.868	0.04290674
806.05	0.04288166
806.232	0.04270818
806.414	0.04269279
806.596	0.04264943
806.778	0.04260086
806.96	0.04268341
807.141	0.04272658
807.323	0.04257547
807.505	0.04253603
807.687	0.04239082
807.869	0.04222863
808.05	0.0420353
808.232	0.04171465
808.414	0.04145975
808.595	0.04136834
808.777	0.04125938
808.959	0.04128209
809.14	0.04128967
809.322	0.04141554
809.504	0.04166604
809.685	0.04185629
809.867	0.04200595
810.048	0.0421023
810.23	0.04215568
810.411	0.04227599
810.593	0.04226676
810.774	0.04210655
810.956	0.04186658
811.137	0.04155544
811.319	0.04132174
811.5	0.04110342
811.681	0.04093222
811.863	0.04088115
812.044	0.04089844
812.225	0.0410544
812.407	0.04120103
812.588	0.04137144
812.769	0.04144862
812.951	0.04150141
813.132	0.04149458
813.313	0.04148425
813.494	0.04149955
813.675	0.04156768
813.857	0.04157125
814.038	0.04165415
814.219	0.04163455
814.4	0.04166931
814.581	0.04162557
814.762	0.04150583
814.943	0.04133013
815.124	0.04123793
815.305	0.04113376
815.486	0.04116742
815.667	0.04117202
815.848	0.04119947
816.029	0.04126252
816.21	0.04136789
816.391	0.04140735
816.572	0.04137787
816.753	0.04124252
816.934	0.04099679
817.115	0.04070274
817.295	0.04046261
817.476	0.04029345
817.657	0.04022071
817.838	0.04016931
818.019	0.04013882
818.199	0.04025112
818.38	0.04042773
818.561	0.04054232
818.741	0.04055047
818.922	0.04060763
819.103	0.04060312
819.283	0.04066428
819.464	0.04073876
819.645	0.04087693
819.825	0.04095308
820.006	0.04111312
820.186	0.04108039
820.367	0.0410507
820.547	0.04090537
820.728	0.04074728
820.908	0.04049869
821.089	0.04036692
821.269	0.04026191
821.45	0.0403499
821.63	0.04046346
821.81	0.04069756
821.991	0.04089812
822.171	0.04112351
822.351	0.04124756
822.532	0.04134378
822.712	0.04134474
822.892	0.04141483
823.072	0.04131019
823.253	0.04116314
823.433	0.04106231
823.613	0.04102643
823.793	0.04097547
823.973	0.04081709
824.154	0.0406531
824.334	0.04055966
824.514	0.04054771
824.694	0.0405318
824.874	0.04061231
825.054	0.0405735
825.234	0.04067873
825.414	0.04071984
825.594	0.04086139
825.774	0.04085151
825.954	0.04093123
826.134	0.04097559
826.314	0.04110595
826.494	0.04117762
826.674	0.0412063
826.854	0.04108962
827.033	0.04112188
827.213	0.0409569
827.393	0.04076863
827.573	0.04061008
827.753	0.04058832
827.932	0.04064558
828.112	0.04079863
828.292	0.04089285
828.472	0.04092907
828.651	0.04087489
828.831	0.04070606
829.011	0.04045657
829.19	0.04012491
829.37	0.03994162
829.549	0.03982298
829.729	0.03988064
829.909	0.0400244
830.088	0.04029689
830.268	0.04054719
830.447	0.04085702
830.627	0.04104144
830.806	0.04118291
830.986	0.04122402
831.165	0.0412668
831.344	0.04128291
831.524	0.0412123
831.703	0.04124543
831.883	0.04124711
832.062	0.04122912
832.241	0.04114399
832.421	0.04093093
832.6	0.04067834
832.779	0.04049595
832.958	0.04025177
833.138	0.04003078
833.317	0.03985314
833.496	0.03979501
833.675	0.03978452
833.854	0.03984197
834.034	0.03984822
834.213	0.03983014
834.392	0.03983777
834.571	0.03980683
834.75	0.03980413
834.929	0.03983701
835.108	0.03978615
835.287	0.03982907
835.466	0.03985535
835.645	0.0398928
835.824	0.04007281
836.003	0.04019803
836.182	0.04021782
836.361	0.04018079
836.54	0.04007956
836.719	0.03998635
836.897	0.03984782
837.076	0.03959501
837.255	0.03932466
837.434	0.0392818
837.613	0.03929383
837.791	0.03929501
837.97	0.03930142
838.149	0.03925902
838.328	0.03915859
838.506	0.03915453
838.685	0.03907383
838.864	0.03901513
839.042	0.03896661
839.221	0.03896589
839.4	0.03903514
839.578	0.03912458
839.757	0.03916084
839.935	0.03919986
840.114	0.03929122
840.292	0.03944124
840.471	0.03954956
840.649	0.03963152
840.828	0.03968282
841.006	0.03974717
841.185	0.03975853
841.363	0.03977185
841.541	0.03974159
841.72	0.03974412
841.898	0.03970334
842.076	0.03973893
842.255	0.03972374
842.433	0.03974991
842.611	0.03978886
842.789	0.03981719
842.968	0.03980715
843.146	0.03983736
843.324	0.03973881
843.502	0.03981554
843.68	0.03979629
843.859	0.03975979
844.037	0.03975447
844.215	0.03969494
844.393	0.03961723
844.571	0.03963579
844.749	0.03955995
844.927	0.03957527
845.105	0.03948455
845.283	0.0393892
845.461	0.03935864
845.639	0.03940645
845.817	0.03951394
845.995	0.0396097
846.173	0.03972903
846.351	0.03987733
846.529	0.04000227
846.706	0.03991832
846.884	0.03981198
847.062	0.03957972
847.24	0.03933859
847.418	0.03901834
847.595	0.03887305
847.773	0.03873526
847.951	0.0388603
848.129	0.0390481
848.306	0.0392454
848.484	0.03944553
848.662	0.03968128
848.839	0.03988534
849.017	0.04008728
849.194	0.04022767
849.372	0.04035044
849.549	0.04050951
849.727	0.04061119
849.905	0.04058177
850.082	0.04041331
850.26	0.04025063
850.437	0.04016419
850.614	0.03993248
850.792	0.03977669
850.969	0.03968091
851.147	0.03973289
851.324	0.03971332
851.501	0.03966056
851.679	0.03945678
851.856	0.03936454
852.033	0.03916643
852.211	0.03893608
852.388	0.03873303
852.565	0.03867162
852.742	0.03867324
852.92	0.03875522
853.097	0.03889805
853.274	0.03897554
853.451	0.03899456
853.628	0.038976
853.805	0.03898805
853.982	0.03899528
854.159	0.03894339
854.336	0.03877665
854.514	0.03869536
854.691	0.03864513
854.868	0.03864159
855.045	0.03852025
855.221	0.03832534
855.398	0.0382371
855.575	0.038168
855.752	0.03813479
855.929	0.03814735
856.106	0.03817026
856.283	0.03813793
856.46	0.03814173
856.637	0.03819159
856.813	0.03821329
856.99	0.03832351
857.167	0.03845048
857.344	0.03859014
857.52	0.03888359
857.697	0.03905239
857.874	0.03910847
858.05	0.03922883
858.227	0.03922449
858.404	0.03919833
858.58	0.03917443
858.757	0.03902473
858.933	0.03905298
859.11	0.03903717
859.287	0.03893357
859.463	0.03894411
859.64	0.03889631
859.816	0.03886938
859.993	0.03896337
860.169	0.03903387
860.345	0.03917798
860.522	0.03926223
860.698	0.03926106
860.875	0.03937386
861.051	0.03935883
861.227	0.03931501
861.404	0.03929409
861.58	0.03925336
861.756	0.03937642
861.932	0.03949192
862.109	0.03946864
862.285	0.03939881
862.461	0.03934485
862.637	0.03919294
862.813	0.03904241
862.99	0.03884464
863.166	0.03858068
863.342	0.03842904
863.518	0.03832005
863.694	0.03821135
863.87	0.03821986
864.046	0.03819049
864.222	0.03820031
864.398	0.03823028
864.574	0.03812488
864.75	0.03817003
864.926	0.0381648
865.102	0.03823044
865.278	0.03832436
865.454	0.03840086
865.63	0.03849463
865.805	0.03863673
865.981	0.03874669
866.157	0.03892554
866.333	0.03893848
866.509	0.03891998
866.684	0.03890829
866.86	0.03889009
867.036	0.03898854
867.212	0.0390155
867.387	0.03900156
867.563	0.03902791
867.739	0.03909994
867.914	0.03913669
868.09	0.03908898
868.265	0.03902698
868.441	0.03888717
868.617	0.03873255
868.792	0.03851886
868.968	0.03842566
869.143	0.03852748
869.319	0.03865416
869.494	0.03878908
869.67	0.03901071
869.845	0.03914399
870.02	0.03931233
870.196	0.03946431
870.371	0.03935477
870.546	0.03927604
870.722	0.03924257
870.897	0.03912901
871.072	0.03903379
871.248	0.03898085
871.423	0.0389079
871.598	0.03880282
871.773	0.03880698
871.949	0.03863188
872.124	0.03861948
872.299	0.03864615
872.474	0.03859258
872.649	0.03844493
872.824	0.03844379
872.999	0.03837566
873.174	0.03842861
873.349	0.03842686
873.524	0.03837036
873.699	0.03824783
873.874	0.03818633
874.049	0.03807437
874.224	0.03795012
874.399	0.03774887
874.574	0.0375267
874.749	0.0373752
874.924	0.03739965
875.099	0.03734427
875.274	0.03728244
875.449	0.03726761
875.623	0.03721377
875.798	0.03708995
875.973	0.03681202
876.148	0.03651276
876.322	0.03623504
876.497	0.03603852
876.672	0.0358382
876.846	0.03574289
877.021	0.03571342
877.196	0.03597056
877.37	0.03620631
877.545	0.03637862
877.72	0.03656128
877.894	0.03670276
878.069	0.03668982
878.243	0.03674161
878.418	0.03672913
878.592	0.03674709
878.767	0.03680289
878.941	0.03675891
879.116	0.03670822
879.29	0.03681573
879.464	0.03686136
879.639	0.03696221
879.813	0.03697998
879.987	0.03703913
880.162	0.03700787
880.336	0.03692557
880.51	0.03691234
880.685	0.03680371
880.859	0.03664867
881.033	0.03650849
881.207	0.03637174
881.381	0.03632385
881.556	0.03635255
881.73	0.03622637
881.904	0.03614314
882.078	0.03593605
882.252	0.03576656
882.426	0.03576886
882.6	0.03587426
882.774	0.03595755
882.948	0.03616459
883.122	0.03629891
883.296	0.03649153
883.47	0.03666413
883.644	0.03668044
883.818	0.03662101
883.992	0.03661946
884.166	0.03655742
884.34	0.0366029
884.514	0.03674725
884.687	0.03673162
884.861	0.03664378
885.035	0.03661363
885.209	0.03667187
885.382	0.03669548
885.556	0.03672026
885.73	0.03665929
885.904	0.03673272
886.077	0.03679417
886.251	0.03673394
886.425	0.03669608
886.598	0.036731
886.772	0.03663574
886.945	0.03643183
887.119	0.03631892
887.292	0.03621743
887.466	0.03621257
887.64	0.03609063
887.813	0.03596018
887.986	0.03594892
888.16	0.03609997
888.333	0.03621248
888.507	0.03643885
888.68	0.03657271
888.854	0.0366952
889.027	0.03671397
889.2	0.03673483
889.374	0.0365976
889.547	0.03651398
889.72	0.03641092
889.893	0.03626961
890.067	0.03616041
890.24	0.03597383
890.413	0.03587731
890.586	0.0360177
890.759	0.03607851
890.933	0.036144
891.106	0.03616415
891.279	0.03612046
891.452	0.03630618
891.625	0.03626352
891.798	0.03614875
891.971	0.03602327
892.144	0.03575315
892.317	0.03561593
892.49	0.03538958
892.663	0.03517886
892.836	0.03515923
893.009	0.03503922
893.182	0.03491572
893.355	0.03489881
893.527	0.03496637
893.7	0.03515266
893.873	0.03520073
894.046	0.03519118
894.219	0.03516594
894.391	0.03518514
894.564	0.03515452
894.737	0.03498876
894.91	0.03482959
895.082	0.03474367
895.255	0.0346362
895.428	0.03463929
895.6	0.03471659
895.773	0.03480341
895.945	0.03494527
896.118	0.03496403
896.291	0.03497156
896.463	0.03496288
896.636	0.03494513
896.808	0.03483471
896.981	0.03481352
897.153	0.0347236
897.326	0.03485813
897.498	0.03482793
897.67	0.03477077
897.843	0.03474326
898.015	0.03459355
898.187	0.03435239
898.36	0.03415406
898.532	0.03380895
898.704	0.03360114
898.877	0.03351992
899.049	0.03343476
899.221	0.03350152
899.393	0.03367114
899.566	0.03374539
899.738	0.03388735
899.91	0.03399121
900.082	0.03421916
900.254	0.03438991
900.426	0.03445553
900.598	0.03441653
900.77	0.03452029
900.942	0.03451486
901.114	0.03455266
901.286	0.03439429
901.458	0.03426405
901.63	0.03422001
901.802	0.03418309
901.974	0.03413916
902.146	0.03407938
902.318	0.03408616
902.49	0.03406551
902.662	0.0340919
902.834	0.03404468
903.005	0.03395959
903.177	0.03382786
903.349	0.03380113
903.521	0.03367434
903.693	0.03370807
903.864	0.03362369
904.036	0.03360069
904.208	0.03361448
904.379	0.03364047
904.551	0.03364242
904.723	0.03347839
904.894	0.03319466
905.066	0.03291826
905.237	0.03254738
905.409	0.03210026
905.58	0.03165372
905.752	0.03139074
905.923	0.03140802
906.095	0.0314688
906.266	0.03161239
906.438	0.03181374
906.609	0.03221544
906.78	0.03246453
906.952	0.03266555
907.123	0.03277623
907.295	0.03284376
907.466	0.03287559
907.637	0.03292272
907.808	0.03281733
907.98	0.03282629
908.151	0.03276129
908.322	0.03269676
908.493	0.03274487
908.665	0.03276618
908.836	0.03279635
909.007	0.03279445
909.178	0.03285594
909.349	0.03284536
909.52	0.03283482
909.691	0.03263599
909.862	0.03244533
910.033	0.03236141
910.204	0.032348
910.375	0.03228613
910.546	0.03218306
910.717	0.03195963
910.888	0.03195309
911.059	0.03190964
911.23	0.03177629
911.401	0.03173174
911.572	0.03176535
911.742	0.03174677
911.913	0.0319053
912.084	0.03187712
912.255	0.03184075
912.426	0.03184934
912.596	0.03179404
912.767	0.03179101
912.938	0.03180337
913.108	0.03183482
913.279	0.0318672
913.45	0.03200458
913.62	0.03212039
913.791	0.03212051
913.962	0.03210448
914.132	0.03222465
914.303	0.03213305
914.473	0.03218441
914.644	0.03214331
914.814	0.03208786
914.985	0.03201689
915.155	0.03183694
915.326	0.03163033
915.496	0.03157081
915.666	0.03139566
915.837	0.03124988
916.007	0.0311003
916.177	0.03098891
916.348	0.0309306
916.518	0.03084032
916.688	0.03076637
916.858	0.03078865
917.029	0.03079966
917.199	0.03074079
917.369	0.03082627
917.539	0.03089135
917.709	0.03096381
917.88	0.03094722
918.05	0.03078047
918.22	0.03073976
918.39	0.03082053
918.56	0.03069866
918.73	0.03067252
918.9	0.03082506
919.07	0.03101123
919.24	0.03125877
919.41	0.03130931
919.58	0.03135326
919.75	0.03156274
919.92	0.03179838
920.09	0.03178463
920.26	0.03187805
920.429	0.03196634
920.599	0.03209692
920.769	0.03221189
920.939	0.03227466
921.109	0.03210215
921.278	0.0319739
921.448	0.03173492
921.618	0.03146595
921.787	0.03119587
921.957	0.03088005
922.127	0.03057888
922.296	0.03047928
922.466	0.03030157
922.636	0.03017225
922.805	0.03002157
922.975	0.02978389
923.144	0.02958205
923.314	0.02937545
923.483	0.028892
923.653	0.0285329
923.822	0.02816524
923.992	0.02796671
924.161	0.02803509
924.331	0.02800285
924.5	0.02803229
924.669	0.02824675
924.839	0.02846803
925.008	0.02864367
925.177	0.02865039
925.347	0.02856072
925.516	0.02857937
925.685	0.02857943
925.854	0.02857334
926.023	0.02871543
926.193	0.02878866
926.362	0.02891748
926.531	0.02910208
926.7	0.02918466
926.869	0.02938116
927.038	0.02935843
927.207	0.02940105
927.376	0.02952942
927.545	0.02966183
927.715	0.02965136
927.884	0.02969925
928.052	0.02950673
928.221	0.02950283
928.39	0.02929688
928.559	0.02915465
928.728	0.02902204
928.897	0.02895153
929.066	0.02890092
929.235	0.02903349
929.404	0.02922859
929.572	0.02931425
929.741	0.02927571
929.91	0.02934898
930.079	0.02932972
930.247	0.02936449
930.416	0.02932565
930.585	0.02914317
930.753	0.02909597
930.922	0.02921239
931.091	0.0291252
931.259	0.02911993
931.428	0.02911088
931.596	0.02908453
931.765	0.02922506
931.934	0.02920734
932.102	0.0291272
932.27	0.02919849
932.439	0.02922629
932.607	0.02904668
932.776	0.02896573
932.944	0.02881836
933.113	0.02871809
933.281	0.02859248
933.449	0.0284666
933.618	0.02834671
933.786	0.02845539
933.954	0.02841553
934.123	0.02822978
934.291	0.0282312
934.459	0.02831971
934.627	0.02837667
934.795	0.02845722
934.964	0.02859519
935.132	0.02875076
935.3	0.02910257
935.468	0.02927356
935.636	0.02941259
935.804	0.02960888
935.972	0.02982507
936.14	0.02995578
936.308	0.03005973
936.476	0.03043297
936.644	0.03083305
936.812	0.03105637
936.98	0.03131938
937.148	0.03165267
937.316	0.03186264
937.484	0.0323125
937.652	0.0324815
937.82	0.03252597
937.987	0.03295226
938.155	0.03319377
938.323	0.03324828
938.491	0.03340657
938.658	0.03341582
938.826	0.03357305
938.994	0.03402499
939.162	0.03417247
939.329	0.0343726
939.497	0.03497043
939.665	0.0352408
939.832	0.0354754
940	0.0352389
940.167	0.03555339
940.335	0.03599779
940.502	0.03633862
940.67	0.03662096
940.837	0.03694342
941.005	0.03786863
941.172	0.03912319
941.34	0.04002727
941.507	0.04038417
941.674	0.04070747
941.842	0.04109528
942.009	0.04197516
942.177	0.04178159
942.344	0.04201857
942.511	0.04137579
942.678	0.04205383
942.846	0.04198437
943.013	0.04276033
943.18	0.04233453
943.347	0.04291062
943.514	0.04283341
943.682	0.04342937
943.849	0.04320443
944.016	0.04358369
944.183	0.04337784
944.35	0.04457086
944.517	0.04467494
944.684	0.04453999
944.851	0.04366795
945.018	0.04389108
945.185	0.04368379
945.352	0.04346362
945.519	0.04253209
945.686	0.04202227
945.853	0.04209755
946.02	0.04251117
946.187	0.04169571
946.353	0.04223226
946.52	0.04104823
946.687	0.04058533
946.854	0.03997857
947.021	0.0391978
947.187	0.03868834
947.354	0.03772805
947.521	0.03689254
947.687	0.03724223
947.854	0.03702374
948.021	0.03615368
948.187	0.03582217
948.354	0.03581529
948.52	0.03613413
948.687	0.03657527
948.854	0.03622998
949.02	0.03604476
949.187	0.03639166
949.353	0.03618017
949.52	0.03559115
949.686	0.03522308
949.852	0.03439485
950.019	0.03403513
950.185	0.03343605
950.352	0.03312643
950.518	0.03303214
950.684	0.03262464
950.851	0.03228564
951.017	0.03171603
951.183	0.0316403
951.349	0.03171223
951.516	0.03149497
951.682	0.03139865
951.848	0.03101526
952.014	0.03055338
952.18	0.03039512
952.346	0.03000371
952.512	0.02914668
952.679	0.02885333
952.845	0.02850099
953.011	0.02869159
953.177	0.02864436
953.343	0.02842487
953.509	0.02796539
953.675	0.02841659
953.841	0.02878032
954.007	0.02882819
954.172	0.02853681
954.338	0.02838717
954.504	0.02783449
954.67	0.02763458
954.836	0.02689359
955.002	0.02628978
955.167	0.02560562
955.333	0.02520229
955.499	0.02497306
955.665	0.02516568
955.83	0.02495942
955.996	0.02459539
956.162	0.02422561
956.327	0.02401755
956.493	0.023615
956.659	0.0233962
956.824	0.02296798
956.99	0.02246788
957.155	0.02252751
957.321	0.02213128
957.486	0.02167858
957.652	0.02135304
957.817	0.02108909
957.983	0.02075159
958.148	0.02085218
958.314	0.02071806
958.479	0.02069465
958.644	0.02094077
958.81	0.0211373
958.975	0.02095486
959.14	0.02102668
959.306	0.02097054
959.471	0.02088754
959.636	0.02085999
959.801	0.02074405
959.967	0.02099296
960.132	0.02103884
960.297	0.0211323
960.462	0.02125487
960.627	0.02137825
960.792	0.02115649
960.957	0.02122611
961.123	0.02115432
961.288	0.02119792
961.453	0.02113333
961.618	0.02097216
961.783	0.02103785
961.948	0.02147113
962.113	0.02147643
962.277	0.02110481
962.442	0.02095765
962.607	0.02078952
962.772	0.02050139
962.937	0.01997298
963.102	0.01936839
963.267	0.01880895
963.431	0.01889362
963.596	0.01882465
963.761	0.018799
963.926	0.01904505
964.09	0.01934222
964.255	0.01961963
964.42	0.01979411
964.584	0.01978112
964.749	0.01986229
964.914	0.01991079
965.078	0.02005818
965.243	0.02011009
965.407	0.02015698
965.572	0.02035306
965.736	0.02042472
965.901	0.02044771
966.065	0.02043548
966.23	0.02022666
966.394	0.02007869
966.559	0.01982624
966.723	0.01984382
966.887	0.01985513
967.052	0.0198493
967.216	0.0198183
967.38	0.01963154
967.545	0.01982279
967.709	0.01985399
967.873	0.01985407
968.037	0.01974661
968.202	0.02001087
968.366	0.02024931
968.53	0.02055288
968.694	0.02046623
968.858	0.02063114
969.022	0.02068171
969.187	0.02073651
969.351	0.02062154
969.515	0.02041288
969.679	0.02044805
969.843	0.02051786
970.007	0.02062293
970.171	0.02055717
970.335	0.02045396
970.499	0.02019429
970.662	0.02019385
970.826	0.02016738
970.99	0.02002588
971.154	0.02002074
971.318	0.01997912
971.482	0.0199803
971.645	0.01990467
971.809	0.02001164
971.973	0.01990287
972.137	0.02002563
972.3	0.02000795
972.464	0.02028598
972.628	0.02023643
972.791	0.02023603
972.955	0.0202994
973.119	0.02022236
973.282	0.01994376
973.446	0.01953582
973.609	0.019096
973.773	0.01889674
973.936	0.0186392
974.1	0.01825928
974.263	0.01789591
974.427	0.01770808
974.59	0.01757692
974.754	0.01730039
974.917	0.01726244
975.08	0.01732011
975.244	0.01726273
975.407	0.01736314
975.57	0.01739259
975.734	0.01735816
975.897	0.01755078
976.06	0.01747383
976.223	0.01738741
976.387	0.01724816
976.55	0.01718301
976.713	0.01699206
976.876	0.01727634
977.039	0.01744451
977.202	0.01762204
977.365	0.01777865
977.528	0.01781853
977.692	0.01766316
977.855	0.01764773
978.018	0.01730004
978.181	0.017002
978.344	0.01680588
978.506	0.01680482
978.669	0.01683989
978.832	0.0170954
978.995	0.01706488
979.158	0.01708369
979.321	0.01705701
979.484	0.01705635
979.646	0.0169672
979.809	0.01707856
979.972	0.01693901
980.135	0.01723317
980.297	0.01743973
980.46	0.01750917
980.623	0.01793566
980.786	0.01779501
980.948	0.01786174
981.111	0.01809978
981.273	0.01831538
981.436	0.01826557
981.599	0.01839457
981.761	0.01803089
981.924	0.01851931
982.086	0.01816629
982.249	0.01813225
982.411	0.01774725
982.573	0.0177536
982.736	0.01756968
982.898	0.01747526
983.061	0.01715449
983.223	0.01722207
983.385	0.01695774
983.548	0.01709539
983.71	0.01729288
983.872	0.01752769
984.034	0.01796897
984.197	0.01814104
984.359	0.01826629
984.521	0.01837319
984.683	0.01810055
984.845	0.01819545
985.008	0.01812407
985.17	0.01788375
985.332	0.01795183
985.494	0.01798418
985.656	0.0179231
985.818	0.01820106
985.98	0.01780275
986.142	0.01747584
986.304	0.01718774
986.466	0.01691754
986.628	0.01687658
986.79	0.0173365
986.952	0.01734397
987.113	0.01727531
987.275	0.01760309
987.437	0.01769818
987.599	0.01768381
987.761	0.01754823
987.922	0.01696373
988.084	0.01675521
988.246	0.0171929
988.408	0.01696262
988.569	0.01724166
988.731	0.01757317
988.893	0.01755585
989.054	0.01788499
989.216	0.01832174
989.377	0.01798491
989.539	0.01795724
989.701	0.01779709
989.862	0.01735519
990.024	0.01740664
990.185	0.01736092
990.347	0.0171581
990.508	0.01739818
990.669	0.01758347
990.831	0.01736303
990.992	0.01766865
991.154	0.01755359
991.315	0.0178057
991.476	0.01755333
991.638	0.01758296
991.799	0.01749556
991.96	0.01783689
992.121	0.01801781
992.283	0.01816795
992.444	0.0177667
992.605	0.01791746
992.766	0.01764383
992.927	0.0176369
993.088	0.01766135
993.249	0.01746181
993.41	0.01746012
993.572	0.01732908
993.733	0.01747633
993.894	0.01740433
994.055	0.01716492
994.216	0.01689948
994.376	0.01648837
994.537	0.0165724
994.698	0.01666332
994.859	0.01624206
995.02	0.01611598
995.181	0.01592702
995.342	0.01578773
995.503	0.01557765
995.663	0.01480452
995.824	0.01491016
995.985	0.01516146
996.146	0.0153823
996.306	0.01562402
996.467	0.0156687
996.628	0.01613082
996.788	0.01692116
996.949	0.01687053
997.11	0.01694479
997.27	0.01646694
997.431	0.01628004
997.591	0.01601301
997.752	0.01587366
997.912	0.0155541
998.073	0.01544825
998.233	0.01500066
998.394	0.01524863
998.554	0.01532815
998.714	0.01568749
998.875	0.01554467
999.035	0.01529369
999.196	0.01532359
999.356	0.0155712
999.516	0.01540264
999.676	0.01609225
999.837	0.01564949
999.997	0.01564005
1000.157	0.01557864
1000.317	0.01518896
1000.477	0.01493326
1000.638	0.0151621
1000.798	0.01475327
1000.958	0.01536702
1001.118	0.01577256
1001.278	0.01622975
1001.438	0.01645526
1001.598	0.01691148
1001.758	0.01744049
1001.918	0.01733178
1002.078	0.01676247
1002.238	0.01672434
1002.398	0.01713631
1002.558	0.01733592
1002.718	0.01743856
1002.878	0.0169082
1003.037	0.01677572
1003.197	0.01697491
1003.357	0.01677095
1003.517	0.01659916
1003.677	0.01654234
1003.836	0.0163342
1003.996	0.01655308
1004.156	0.01669221
1004.315	0.01634466
1004.475	0.01610085
1004.635	0.01610226
1004.794	0.0162888
1004.954	0.01608974
1005.114	0.0159094
1005.273	0.01638673
1005.433	0.01703477
1005.592	0.01736027
1005.752	0.01731699
1005.911	0.01681208
1006.071	0.01654367
1006.23	0.01639485
1006.389	0.0161296
1006.549	0.01632181
1006.708	0.01623817
1006.868	0.01589072
1007.027	0.01628602
1007.186	0.01662136
1007.345	0.01657659
1007.505	0.01623039
1007.664	0.01540459
1007.823	0.01542838
1007.982	0.01526083
1008.142	0.01539677
1008.301	0.01588034
1008.46	0.01569702
1008.619	0.0161462
1008.778	0.01674351
1008.937	0.01669957
1009.096	0.01736457
1009.255	0.01675627
1009.414	0.01670725
1009.573	0.01700278
1009.732	0.01676783
1009.891	0.01698861
1010.05	0.01757452
1010.209	0.01755736
1010.368	0.01837256
1010.527	0.01869439
1010.686	0.01901565
1010.845	0.01938117
1011.003	0.01938257
1011.162	0.01897856
1011.321	0.01969641
1011.48	0.01996057
1011.638	0.01996081
1011.797	0.02086618
1011.956	0.02050205
1012.115	0.02040914
1012.273	0.02043246
1012.432	0.01946678
1012.59	0.01943787
1012.749	0.01945739
1012.908	0.01777048
1013.066	0.01743764
1013.225	0.01808392
1013.383	0.01825974
1013.542	0.01863332
1013.7	0.01741869
1013.859	0.01700587
1014.017	0.01833196
1014.175	0.01810622
1014.334	0.01726427
1014.492	0.01686025
1014.65	0.01614616
1014.809	0.0169167
1014.967	0.01657855
1015.125	0.01635277
1015.284	0.01694305
1015.442	0.01682399
1015.6	0.01716169
1015.758	0.01755693
1015.916	0.0176455
1016.075	0.01729998
1016.233	0.01733905
1016.391	0.01716478
1016.549	0.01725572
1016.707	0.01709174
1016.865	0.01793086
1017.023	0.01866725
1017.181	0.01863054
1017.339	0.0182148
1017.497	0.01862511
1017.655	0.01955863
1017.813	0.02128457
1017.971	0.0205451
1018.129	0.02040829
1018.286	0.02087529
1018.444	0.02132118
1018.602	0.02185607
1018.76	0.0220808
1018.918	0.02162406
1019.075	0.02181842
1019.233	0.02153499
1019.391	0.02163948
1019.549	0.02238821
1019.706	0.02275611
1019.864	0.02271893
1020.022	0.02244144
1020.179	0.02368707
1020.337	0.0254563
1020.494	0.02673406
1020.652	0.02635156
1020.809	0.02676268
1020.967	0.02645761
1021.124	0.02733189
1021.282	0.0264205
1021.439	0.02524882
1021.597	0.02443532
1021.754	0.02472762
1021.911	0.02486413
1022.069	0.02458607
1022.226	0.0220875
1022.384	0.02246858
1022.541	0.02132756
1022.698	0.02220817
1022.855	0.02123956
1023.013	0.02169798
1023.17	0.02154028
1023.327	0.02414707
1023.484	0.02374258
1023.641	0.02519258
1023.798	0.02606977
1023.956	0.02703126
1024.113	0.02642785
1024.27	0.02736516
1024.427	0.02631726
1024.584	0.02695701
1024.741	0.02660906
1024.898	0.02473189
1025.055	0.02445116
1025.212	0.02399459
1025.369	0.0236853
1025.525	0.02376336
1025.682	0.02357985
1025.839	0.02412599
1025.996	0.02644287
1026.153	0.02726498
1026.31	0.02867968
1026.466	0.02792481
1026.623	0.02863726
1026.78	0.02937216
1026.937	0.03015305
1027.093	0.02956973
1027.25	0.02959693
1027.407	0.02872935
1027.563	0.03067089
1027.72	0.03221084
1027.876	0.03143969
1028.033	0.03034777
1028.19	0.02866862
1028.346	0.02783601
1028.503	0.02772563
1028.659	0.02712099
1028.816	0.02489486
1028.972	0.02510378
1029.128	0.02534725
1029.285	0.02411058
1029.441	0.02598161
1029.598	0.02561272
1029.754	0.02666184
1029.91	0.0276627
1030.067	0.02889054
1030.223	0.02969621
1030.379	0.03259187
1030.535	0.03286056
1030.691	0.03643677
1030.848	0.03598183
1031.004	0.03605889
1031.16	0.0376086
1031.316	0.0388198
1031.472	0.03912285
1031.628	0.03853053
1031.784	0.03886496
1031.94	0.03977692
1032.096	0.04000949
1032.252	0.03889036
1032.408	0.03802353
1032.564	0.03929098
1032.72	0.04057312
1032.876	0.0367314
1033.032	0.03730506
1033.188	0.0387733
1033.344	0.03846054
1033.5	0.03842715
1033.655	0.03777234
1033.811	0.03716195
1033.967	0.0392093
