Data from 0_1_mm_pl_10pc_Absorbance__0__18-05-56-675.txt Node

Date: Wed Mar 01 18:05:56 CET 2023
User: Ange
Spectrometer: FLMT08341
Trigger mode: 0
Integration Time (sec): 1.000000E-2
Scans to average: 400
Electric dark correction enabled: true
Nonlinearity correction enabled: false
Boxcar width: 3
XAxis mode: Wavelengths
Number of Pixels in Spectrum: 3648
>>>>>Begin Spectral Data<<<<<
345.271	0.0280166
345.487	0.01710167
345.704	0.01555092
345.921	0.02853249
346.137	0.02838969
346.354	0.01521737
346.571	0.04494243
346.787	-0.02912208
347.004	-0.12037054
347.22	0.00593061
347.437	0.13273152
347.653	0.13041851
347.87	-0.01357545
348.086	-0
348.303	-0.18986567
348.519	0.06672441
348.736	0.06818357
348.952	0.06470403
349.169	0.06636583
349.385	0.0692283
349.601	0.06473895
349.818	0.0621298
350.034	0.06057471
350.251	0.0605291
350.467	0.0613179
350.683	0.05886014
350.9	0.05877531
351.116	0.05969441
351.332	0.06121135
351.549	0.06280769
351.765	0.0647392
351.981	0.06614837
352.197	0.06937467
352.414	0.0697703
352.63	0.073122
352.846	0.07266885
353.062	0.07130005
353.278	0.07042699
353.495	0.07091081
353.711	0.07093637
353.927	0.07197813
354.143	0.07097159
354.359	0.07106447
354.575	0.07230448
354.792	0.07371069
355.008	0.07225061
355.224	0.07261547
355.44	0.07238805
355.656	0.07248716
355.872	0.07271343
356.088	0.0751629
356.304	0.07708518
356.52	0.07893925
356.736	0.07929155
356.952	0.0806027
357.168	0.08200979
357.384	0.08387103
357.6	0.08265006
357.816	0.08072155
358.032	0.08248487
358.248	0.083874
358.464	0.08491664
358.679	0.08533428
358.895	0.08640601
359.111	0.08870429
359.327	0.08946743
359.543	0.0890745
359.759	0.08876688
359.974	0.0881377
360.19	0.08935046
360.406	0.08981831
360.622	0.08851597
360.838	0.08853642
361.053	0.08924693
361.269	0.08939677
361.485	0.09133627
361.701	0.09127353
361.916	0.09070518
362.132	0.09180581
362.348	0.09328871
362.563	0.09363965
362.779	0.09521394
362.995	0.09412368
363.21	0.09491045
363.426	0.09596772
363.641	0.09739224
363.857	0.09752214
364.073	0.09856315
364.288	0.09816418
364.504	0.10102096
364.719	0.10147161
364.935	0.10151947
365.15	0.10165066
365.366	0.10274236
365.581	0.10307231
365.797	0.10374491
366.012	0.10200077
366.228	0.10131795
366.443	0.10267324
366.658	0.10204653
366.874	0.10154939
367.089	0.10167927
367.305	0.10189205
367.52	0.10312567
367.735	0.10336672
367.951	0.10310038
368.166	0.10374164
368.381	0.1055665
368.597	0.10618605
368.812	0.10655127
369.027	0.10745958
369.243	0.10771352
369.458	0.10867533
369.673	0.10964583
369.888	0.10929751
370.104	0.10908194
370.319	0.10923978
370.534	0.10956401
370.749	0.11145969
370.964	0.11212218
371.179	0.11260866
371.395	0.11308887
371.61	0.113593
371.825	0.11406948
372.04	0.11391519
372.255	0.11269249
372.47	0.11304975
372.685	0.11210841
372.9	0.11257044
373.115	0.11354253
373.33	0.11428527
373.545	0.11508268
373.76	0.11627884
373.975	0.11612947
374.19	0.11635167
374.405	0.11654624
374.62	0.11686179
374.835	0.11808072
375.05	0.11827945
375.265	0.11856945
375.48	0.11945548
375.695	0.12211993
375.91	0.12174498
376.125	0.12199244
376.339	0.12072977
376.554	0.12118221
376.769	0.12158243
376.984	0.12187367
377.199	0.12151335
377.414	0.12180365
377.628	0.12241306
377.843	0.12460621
378.058	0.1255795
378.273	0.12583931
378.487	0.12605253
378.702	0.12653443
378.917	0.12755922
379.131	0.12787682
379.346	0.12607057
379.561	0.12466942
379.775	0.12481202
379.99	0.12415516
380.205	0.12401841
380.419	0.12412871
380.634	0.12278947
380.848	0.12492908
381.063	0.12639439
381.278	0.12805253
381.492	0.12848277
381.707	0.12945098
381.921	0.13009189
382.136	0.13236909
382.35	0.13198168
382.565	0.13087183
382.779	0.13166701
382.994	0.1321583
383.208	0.13203375
383.422	0.13294464
383.637	0.1325424
383.851	0.13359617
384.066	0.13613727
384.28	0.13630575
384.494	0.13710324
384.709	0.1380675
384.923	0.1383891
385.137	0.13837299
385.352	0.13868561
385.566	0.13811927
385.78	0.1380208
385.995	0.13801152
386.209	0.13756307
386.423	0.13814359
386.637	0.13891431
386.852	0.13838699
387.066	0.13865158
387.28	0.13862272
387.494	0.13948686
387.708	0.14046779
387.923	0.14077502
388.137	0.14195913
388.351	0.14263302
388.565	0.14361625
388.779	0.14516545
388.993	0.14570408
389.207	0.14598177
389.421	0.14597802
389.635	0.14575207
389.85	0.14618534
390.064	0.14630496
390.278	0.14599684
390.492	0.14704333
390.706	0.14750388
390.92	0.14781509
391.134	0.14839882
391.348	0.14953341
391.561	0.15001832
391.775	0.15032748
391.989	0.15005105
392.203	0.15093991
392.417	0.15186686
392.631	0.15299694
392.845	0.1530945
393.059	0.15402459
393.273	0.15386071
393.486	0.15327727
393.7	0.15262914
393.914	0.15294627
394.128	0.15225231
394.342	0.15191903
394.555	0.15149257
394.769	0.15189428
394.983	0.15281221
395.197	0.15343697
395.41	0.15334387
395.624	0.15416748
395.838	0.15453656
396.051	0.15529152
396.265	0.15535419
396.479	0.15539477
396.692	0.15557914
396.906	0.15543542
397.12	0.15548329
397.333	0.15623958
397.547	0.15602012
397.76	0.15672909
397.974	0.15732647
398.187	0.15782121
398.401	0.15857715
398.614	0.15884856
398.828	0.15873009
399.041	0.15933121
399.255	0.1596237
399.468	0.15959253
399.682	0.15979687
399.895	0.16028244
400.109	0.16004913
400.322	0.16020024
400.536	0.15944394
400.749	0.15958291
400.962	0.15977
401.176	0.15951928
401.389	0.15930013
401.602	0.15944334
401.816	0.15969361
402.029	0.16037869
402.242	0.1605422
402.456	0.16031672
402.669	0.16021965
402.882	0.15987904
403.095	0.16049688
403.309	0.16050862
403.522	0.16081586
403.735	0.16061712
403.948	0.16120624
404.161	0.16207794
404.375	0.1623477
404.588	0.16207416
404.801	0.16189007
405.014	0.16138086
405.227	0.16178001
405.44	0.16182732
405.653	0.16196475
405.866	0.16178351
406.079	0.1615169
406.293	0.16168071
406.506	0.16178504
406.719	0.16147508
406.932	0.16140147
407.145	0.16099104
407.358	0.16163099
407.571	0.16180491
407.784	0.16173081
407.996	0.16199165
408.209	0.16190704
408.422	0.16150657
408.635	0.161749
408.848	0.16195144
409.061	0.1615414
409.274	0.1618472
409.487	0.16151797
409.7	0.16133345
409.912	0.16193609
410.125	0.16146078
410.338	0.16115297
410.551	0.16125544
410.764	0.1608389
410.976	0.16098166
411.189	0.16068062
411.402	0.15999215
411.615	0.16011017
411.827	0.15992824
412.04	0.15971003
412.253	0.1594244
412.465	0.15917367
412.678	0.15925791
412.891	0.15954076
413.103	0.15896665
413.316	0.15845655
413.529	0.15853166
413.741	0.15897243
413.954	0.15890776
414.166	0.1586913
414.379	0.15826246
414.591	0.15816823
414.804	0.1577221
415.016	0.15755641
415.229	0.15674124
415.441	0.15635656
415.654	0.15626738
415.866	0.15628422
416.079	0.15641584
416.291	0.15631515
416.504	0.15611408
416.716	0.15598422
416.928	0.15579075
417.141	0.15555563
417.353	0.15512355
417.566	0.15439667
417.778	0.15417774
417.99	0.1536923
418.203	0.15339801
418.415	0.1531583
418.627	0.15273119
418.839	0.15242859
419.052	0.15287119
419.264	0.15250101
419.476	0.15237863
419.688	0.1521424
419.901	0.15167026
420.113	0.1516335
420.325	0.15133878
420.537	0.15046434
420.749	0.15066863
420.961	0.15034877
421.174	0.15016173
421.386	0.14988479
421.598	0.1491573
421.81	0.14879398
422.022	0.14829039
422.234	0.14769363
422.446	0.14716632
422.658	0.14651742
422.87	0.14601027
423.082	0.14558911
423.294	0.14490335
423.506	0.14467513
423.718	0.14412008
423.93	0.143667
424.142	0.14315903
424.354	0.14266341
424.566	0.14247757
424.778	0.14233163
424.99	0.14209537
425.202	0.14169659
425.414	0.14122341
425.625	0.1409701
425.837	0.14055076
426.049	0.14012015
426.261	0.13959001
426.473	0.13884462
426.684	0.13836652
426.896	0.1379016
427.108	0.13715104
427.32	0.13689333
427.531	0.13635115
427.743	0.13594112
427.955	0.13566095
428.167	0.13515102
428.378	0.13463942
428.59	0.13425606
428.802	0.13365807
429.013	0.13306761
429.225	0.1322281
429.436	0.1315451
429.648	0.13100592
429.86	0.13051648
430.071	0.13007895
430.283	0.12946342
430.494	0.12873581
430.706	0.12844142
430.917	0.12792159
431.129	0.12750406
431.34	0.12680271
431.552	0.1264047
431.763	0.12579689
431.975	0.12550904
432.186	0.12491372
432.398	0.12439517
432.609	0.12365821
432.821	0.12343628
433.032	0.12277593
433.243	0.1222691
433.455	0.12167078
433.666	0.1209953
433.877	0.12054024
434.089	0.11988741
434.3	0.11924042
434.511	0.1187521
434.723	0.11819462
434.934	0.11775908
435.145	0.11733573
435.356	0.11656437
435.568	0.11603947
435.779	0.11536468
435.99	0.11454378
436.201	0.11388093
436.412	0.11300332
436.624	0.11235004
436.835	0.1117622
437.046	0.1114633
437.257	0.11082208
437.468	0.11047732
437.679	0.11009855
437.89	0.10980322
438.101	0.10921291
438.312	0.10870025
438.523	0.10792791
438.734	0.10751334
438.945	0.10676843
439.156	0.10615487
439.367	0.10555968
439.578	0.10514164
439.789	0.10466341
440	0.10418299
440.211	0.10353264
440.422	0.10311928
440.633	0.10258813
440.844	0.10185221
441.055	0.10116847
441.266	0.10064212
441.477	0.09996254
441.687	0.09941301
441.898	0.09867313
442.109	0.0978738
442.32	0.09726452
442.531	0.09655708
442.741	0.09580379
442.952	0.09508504
443.163	0.09447572
443.374	0.09382485
443.584	0.09326693
443.795	0.09253766
444.006	0.09198854
444.216	0.09137385
444.427	0.09069253
444.638	0.08991619
444.848	0.08924571
445.059	0.08847153
445.27	0.0879659
445.48	0.08705866
445.691	0.08644366
445.901	0.08585415
446.112	0.08518467
446.323	0.08465815
446.533	0.08407926
446.744	0.08336504
446.954	0.08291952
447.165	0.08220965
447.375	0.08170999
447.586	0.0812813
447.796	0.08068316
448.006	0.08027583
448.217	0.07984464
448.427	0.07938085
448.638	0.07875809
448.848	0.07802283
449.058	0.07742699
449.269	0.07679724
449.479	0.07611584
449.689	0.0754642
449.9	0.0747827
450.11	0.07426672
450.32	0.07377692
450.531	0.07320072
450.741	0.07262388
450.951	0.07191862
451.161	0.07132354
451.372	0.07076172
451.582	0.07040318
451.792	0.0698469
452.002	0.06927173
452.212	0.0686954
452.422	0.06816464
452.633	0.06752894
452.843	0.06701376
453.053	0.06624211
453.263	0.06577219
453.473	0.06515669
453.683	0.06466591
453.893	0.06422764
454.103	0.06387222
454.313	0.06339069
454.523	0.06293835
454.733	0.06233715
454.943	0.06192793
455.153	0.06140399
455.363	0.06091745
455.573	0.06046511
455.783	0.05992201
455.993	0.05937193
456.203	0.05895565
456.413	0.05837026
456.623	0.05796982
456.833	0.05768641
457.042	0.05709431
457.252	0.0565907
457.462	0.05602655
457.672	0.05544915
457.882	0.05512128
458.091	0.05459638
458.301	0.0539547
458.511	0.05359013
458.721	0.05322738
458.931	0.0528741
459.14	0.05245749
459.35	0.05210378
459.56	0.05168146
459.769	0.0513784
459.979	0.05083832
460.189	0.05050989
460.398	0.05009738
460.608	0.04979841
460.817	0.04919565
461.027	0.04886295
461.237	0.04837722
461.446	0.0479658
461.656	0.04751504
461.865	0.04708753
462.075	0.04666599
462.284	0.04633806
462.494	0.0459227
462.703	0.04546805
462.913	0.04517849
463.122	0.04472532
463.332	0.04434829
463.541	0.04400368
463.751	0.04362133
463.96	0.04332435
464.169	0.04304909
464.379	0.04282095
464.588	0.0425811
464.797	0.04235453
465.007	0.04202044
465.216	0.04173142
465.425	0.04141149
465.635	0.04105688
465.844	0.04072785
466.053	0.04037266
466.263	0.04005404
466.472	0.03987011
466.681	0.03955725
466.89	0.03914862
467.099	0.03894187
467.309	0.03847175
467.518	0.03821502
467.727	0.03784499
467.936	0.03736045
468.145	0.03716499
468.354	0.03699175
468.563	0.03661476
468.772	0.03637738
468.982	0.03616411
469.191	0.03600152
469.4	0.03582594
469.609	0.03550731
469.818	0.03521141
470.027	0.03494359
470.236	0.03470861
470.445	0.03437888
470.654	0.03408122
470.863	0.03381131
471.072	0.0335718
471.28	0.03324385
471.489	0.03300292
471.698	0.03277664
471.907	0.03253225
472.116	0.03233811
472.325	0.03210622
472.534	0.03186472
472.743	0.03169091
472.951	0.03142722
473.16	0.03128409
473.369	0.03113614
473.578	0.03098826
473.786	0.03087074
473.995	0.03069205
474.204	0.03049949
474.413	0.03042336
474.621	0.03021831
474.83	0.03004756
475.039	0.02972128
475.247	0.02950175
475.456	0.02931323
475.665	0.02921019
475.873	0.02903202
476.082	0.02880527
476.291	0.02859249
476.499	0.02852081
476.708	0.0283227
476.916	0.02815796
477.125	0.02798003
477.333	0.02783418
477.542	0.02770619
477.75	0.02762966
477.959	0.02745581
478.167	0.02731952
478.376	0.02722127
478.584	0.02712581
478.793	0.02700565
479.001	0.0268461
479.209	0.02665929
479.418	0.02652683
479.626	0.02641656
479.834	0.02623639
480.043	0.02604786
480.251	0.02588901
480.459	0.02580709
480.668	0.02577988
480.876	0.02571594
481.084	0.02563403
481.293	0.02560379
481.501	0.02554853
481.709	0.0254605
481.917	0.02539118
482.125	0.02533047
482.334	0.02523442
482.542	0.02512116
482.75	0.02505321
482.958	0.02500313
483.166	0.02497849
483.374	0.0248378
483.583	0.0247097
483.791	0.02464314
483.999	0.02468453
484.207	0.02461671
484.415	0.02450077
484.623	0.02442234
484.831	0.0244009
485.039	0.02440407
485.247	0.0243965
485.455	0.02426174
485.663	0.02412308
485.871	0.02404766
486.079	0.02398916
486.287	0.02396816
486.495	0.02384841
486.702	0.0237355
486.91	0.02371348
487.118	0.02378086
487.326	0.02375989
487.534	0.02368189
487.742	0.02367033
487.95	0.02357811
488.157	0.0235117
488.365	0.02348531
488.573	0.02339147
488.781	0.02338152
488.988	0.02336257
489.196	0.02325818
489.404	0.02326329
489.612	0.02325775
489.819	0.02327059
490.027	0.02327145
490.235	0.0233167
490.442	0.02332717
490.65	0.02339046
490.857	0.0234017
491.065	0.02342276
491.273	0.02343362
491.48	0.02345064
491.688	0.02337605
491.895	0.02340185
492.103	0.02345507
492.31	0.02344416
492.518	0.02350011
492.725	0.02343774
492.933	0.02341048
493.14	0.02344269
493.348	0.02340925
493.555	0.02338571
493.763	0.0233992
493.97	0.02345027
494.177	0.02351486
494.385	0.02352585
494.592	0.02354696
494.8	0.02361565
495.007	0.02357025
495.214	0.02368464
495.422	0.02369905
495.629	0.02373757
495.836	0.02379427
496.043	0.02385107
496.251	0.02390277
496.458	0.02399529
496.665	0.02399969
496.872	0.02404553
497.08	0.02407494
497.287	0.02409896
497.494	0.02417858
497.701	0.02418071
497.908	0.02419923
498.115	0.02426277
498.322	0.02426209
498.53	0.02430598
498.737	0.02440268
498.944	0.024412
499.151	0.0244854
499.358	0.02456923
499.565	0.02458041
499.772	0.02463387
499.979	0.02467607
500.186	0.02475873
500.393	0.0248034
500.6	0.02489428
500.807	0.02495363
501.014	0.02505351
501.221	0.02516303
501.427	0.0252564
501.634	0.02536992
501.841	0.02547977
502.048	0.02554948
502.255	0.02562688
502.462	0.02571328
502.669	0.02575922
502.875	0.02587295
503.082	0.02585466
503.289	0.02593583
503.496	0.0259881
503.702	0.02609986
503.909	0.02617517
504.116	0.02625223
504.323	0.02631869
504.529	0.02639532
504.736	0.02648107
504.943	0.02656982
505.149	0.02663607
505.356	0.02672945
505.563	0.02687014
505.769	0.02693942
505.976	0.0270192
506.182	0.02710952
506.389	0.02716911
506.595	0.02723097
506.802	0.02731668
507.008	0.02730334
507.215	0.02742419
507.421	0.02757051
507.628	0.02764081
507.834	0.0277665
508.041	0.02787632
508.247	0.02796542
508.454	0.02814561
508.66	0.02819754
508.866	0.02826972
509.073	0.0284104
509.279	0.02853549
509.486	0.02864711
509.692	0.02878064
509.898	0.028941
510.105	0.02904832
510.311	0.02915728
510.517	0.02925382
510.723	0.02934761
510.93	0.0294185
511.136	0.02952189
511.342	0.02961581
511.548	0.02977285
511.754	0.02990924
511.961	0.03003049
512.167	0.03017844
512.373	0.03035403
512.579	0.03049213
512.785	0.03062375
512.991	0.03076763
513.197	0.03088531
513.404	0.03100037
513.61	0.03112919
513.816	0.03123648
514.022	0.03140564
514.228	0.03149782
514.434	0.03159581
514.64	0.03175842
514.846	0.03186725
515.052	0.03201818
515.258	0.03212077
515.464	0.03220199
515.669	0.03232148
515.875	0.03244972
516.081	0.03255118
516.287	0.03274091
516.493	0.03287958
516.699	0.03302506
516.905	0.03313425
517.111	0.03329443
517.316	0.03341356
517.522	0.033591
517.728	0.03372679
517.934	0.0338454
518.139	0.03401515
518.345	0.03414378
518.551	0.03427836
518.757	0.03443585
518.962	0.03453181
519.168	0.03463056
519.374	0.03478785
519.579	0.03490811
519.785	0.03511798
519.991	0.03527661
520.196	0.03544526
520.402	0.03564259
520.607	0.03583511
520.813	0.03594289
521.018	0.03615979
521.224	0.03631089
521.429	0.03642289
521.635	0.03656315
521.84	0.03674186
522.046	0.03689603
522.251	0.0370984
522.457	0.03726106
522.662	0.03742224
522.868	0.03767078
523.073	0.03785039
523.279	0.03799299
523.484	0.03817398
523.689	0.03831133
523.895	0.03847709
524.1	0.0386398
524.305	0.03882994
524.511	0.039016
524.716	0.03921538
524.921	0.03938169
525.126	0.03958809
525.332	0.03974707
525.537	0.03993697
525.742	0.04006664
525.947	0.04021001
526.153	0.04035587
526.358	0.04055359
526.563	0.04072822
526.768	0.04088707
526.973	0.04106128
527.178	0.04126207
527.383	0.04151092
527.588	0.04172166
527.794	0.04190668
527.999	0.04211124
528.204	0.04229285
528.409	0.04243805
528.614	0.04261804
528.819	0.04275391
529.024	0.04295466
529.229	0.04315338
529.434	0.04330548
529.639	0.04347174
529.843	0.04365692
530.048	0.04382352
530.253	0.04397576
530.458	0.04414913
530.663	0.04425437
530.868	0.04443342
531.073	0.04469519
531.278	0.04489341
531.482	0.04504164
531.687	0.04527871
531.892	0.04544472
532.097	0.04569133
532.302	0.0458901
532.506	0.04609881
532.711	0.04630986
532.916	0.04653356
533.12	0.04668914
533.325	0.04692379
533.53	0.04711583
533.734	0.04737135
533.939	0.04749993
534.144	0.04771113
534.348	0.04791662
534.553	0.04816448
534.757	0.04832818
534.962	0.04850529
535.167	0.04866196
535.371	0.04893816
535.576	0.04911801
535.78	0.0493478
535.985	0.04953627
536.189	0.04976367
536.394	0.04998745
536.598	0.05018309
536.803	0.05033606
537.007	0.05057787
537.211	0.05082584
537.416	0.05108313
537.62	0.05130668
537.825	0.05151273
538.029	0.05182342
538.233	0.05207764
538.438	0.05228028
538.642	0.05240261
538.846	0.05260267
539.05	0.05279421
539.255	0.05302467
539.459	0.05319139
539.663	0.05339588
539.867	0.05361307
540.072	0.05390676
540.276	0.05416445
540.48	0.05434679
540.684	0.05451708
540.888	0.05470431
541.092	0.05489957
541.297	0.05511806
541.501	0.05529461
541.705	0.05547489
541.909	0.0557107
542.113	0.05597457
542.317	0.05618562
542.521	0.05642574
542.725	0.05668903
542.929	0.05695725
543.133	0.05716108
543.337	0.05742701
543.541	0.05769363
543.745	0.05797938
543.949	0.05822848
544.153	0.0584263
544.357	0.0586363
544.56	0.0588517
544.764	0.05907408
544.968	0.05922499
545.172	0.05942911
545.376	0.0596696
545.58	0.05986191
545.783	0.06010413
545.987	0.0603353
546.191	0.06053498
546.395	0.06080676
546.598	0.06102006
546.802	0.06123625
547.006	0.0614942
547.21	0.06171443
547.413	0.06195514
547.617	0.06225761
547.821	0.06245082
548.024	0.06267803
548.228	0.0628875
548.431	0.06313614
548.635	0.06335295
548.839	0.06356257
549.042	0.0637412
549.246	0.06397848
549.449	0.06420079
549.653	0.06441633
549.856	0.06467947
550.06	0.06486491
550.263	0.06512282
550.467	0.06535321
550.67	0.06566772
550.874	0.06590258
551.077	0.06615207
551.28	0.06633758
551.484	0.06660723
551.687	0.06683268
551.891	0.06711431
552.094	0.06729735
552.297	0.06757748
552.501	0.06781038
552.704	0.06804962
552.907	0.06827262
553.11	0.0685251
553.314	0.06871448
553.517	0.06893788
553.72	0.06912812
553.923	0.06940465
554.127	0.06962447
554.33	0.06983473
554.533	0.07006695
554.736	0.07032637
554.939	0.07060327
555.142	0.07087527
555.345	0.07103979
555.549	0.07131269
555.752	0.07157743
555.955	0.07180258
556.158	0.07204434
556.361	0.07229051
556.564	0.07250636
556.767	0.07280886
556.97	0.0730645
557.173	0.0733153
557.376	0.07358374
557.579	0.07382504
557.782	0.07403106
557.984	0.07429996
558.187	0.07452946
558.39	0.07475741
558.593	0.07499652
558.796	0.07522251
558.999	0.07543764
559.202	0.07570794
559.404	0.0759355
559.607	0.07615808
559.81	0.07641834
560.013	0.07666039
560.216	0.0769177
560.418	0.07716503
560.621	0.07739833
560.824	0.07759409
561.026	0.07783815
561.229	0.07802458
561.432	0.07827347
561.634	0.07845084
561.837	0.07865555
562.04	0.07884066
562.242	0.07909835
562.445	0.0793351
562.647	0.07956003
562.85	0.07973774
563.053	0.08000688
563.255	0.08027927
563.458	0.08053833
563.66	0.08077621
563.863	0.08101694
564.065	0.08126106
564.268	0.08156119
564.47	0.08184336
564.672	0.0820565
564.875	0.08230274
565.077	0.08253645
565.28	0.08273487
565.482	0.0830077
565.684	0.08322463
565.887	0.08339476
566.089	0.08364996
566.291	0.08390238
566.494	0.08413336
566.696	0.08442527
566.898	0.0846289
567.1	0.08484142
567.303	0.08511109
567.505	0.08534318
567.707	0.08553778
567.909	0.08576634
568.111	0.08599506
568.314	0.0862627
568.516	0.08647845
568.718	0.08668343
568.92	0.08689481
569.122	0.087103
569.324	0.08736468
569.526	0.08755045
569.728	0.08777611
569.93	0.08801729
570.132	0.08828186
570.334	0.08852318
570.536	0.08875014
570.738	0.08897632
570.94	0.08921454
571.142	0.08941107
571.344	0.08961656
571.546	0.08983375
571.748	0.09007808
571.95	0.09029791
572.152	0.09048576
572.354	0.09070621
572.555	0.09095564
572.757	0.09121328
572.959	0.09137996
573.161	0.09157208
573.363	0.09176954
573.564	0.09200662
573.766	0.09219907
573.968	0.09238764
574.17	0.09255972
574.371	0.09274742
574.573	0.09292927
574.775	0.09310862
574.976	0.09330263
575.178	0.093523
575.38	0.09373262
575.581	0.09396164
575.783	0.09416989
575.985	0.09441451
576.186	0.09467154
576.388	0.09487148
576.589	0.09504363
576.791	0.09522341
576.992	0.09544499
577.194	0.09568082
577.395	0.0958296
577.597	0.09605902
577.798	0.09626816
578	0.09646778
578.201	0.09670388
578.402	0.09688063
578.604	0.09704784
578.805	0.0972691
579.007	0.09743282
579.208	0.09761277
579.409	0.09779104
579.611	0.09793571
579.812	0.0981105
580.013	0.09837527
580.215	0.09854743
580.416	0.09874884
580.617	0.09893096
580.818	0.09914565
581.019	0.09936041
581.221	0.09954173
581.422	0.0996916
581.623	0.09988665
581.824	0.10006398
582.025	0.10026164
582.226	0.100456
582.428	0.10064269
582.629	0.10083106
582.83	0.10103285
583.031	0.1012144
583.232	0.10141201
583.433	0.10160977
583.634	0.1017747
583.835	0.10196293
584.036	0.1021118
584.237	0.10225797
584.438	0.10242351
584.639	0.10256055
584.84	0.10273693
585.041	0.10287963
585.242	0.10305089
585.442	0.10327787
585.643	0.10348085
585.844	0.10367319
586.045	0.1038406
586.246	0.10394801
586.447	0.10412223
586.647	0.104253
586.848	0.10436807
587.049	0.10450631
587.25	0.10465375
587.45	0.10482212
587.651	0.10501283
587.852	0.10518857
588.053	0.10536953
588.253	0.10553576
588.454	0.1056717
588.655	0.10580615
588.855	0.10597442
589.056	0.10614356
589.256	0.10629459
589.457	0.10646439
589.658	0.10663993
589.858	0.10676068
590.059	0.10687974
590.259	0.10700756
590.46	0.10713787
590.66	0.10725107
590.861	0.1073431
591.061	0.10748216
591.262	0.10767277
591.462	0.10788304
591.662	0.10802339
591.863	0.10815816
592.063	0.10830613
592.264	0.10846032
592.464	0.10857929
592.664	0.10869355
592.865	0.10885739
593.065	0.10893901
593.265	0.10909532
593.465	0.10920603
593.666	0.10933251
593.866	0.10942803
594.066	0.10956668
594.266	0.10961376
594.467	0.10971762
594.667	0.10978356
594.867	0.10992424
595.067	0.11002542
595.267	0.11017393
595.467	0.11027991
595.668	0.1103894
595.868	0.11058752
596.068	0.11069542
596.268	0.110766
596.468	0.11091421
596.668	0.11098882
596.868	0.11109326
597.068	0.11121568
597.268	0.11128837
597.468	0.11143355
597.668	0.11158126
597.868	0.11163885
598.068	0.11178389
598.268	0.11186009
598.467	0.11199545
598.667	0.11200058
598.867	0.11203665
599.067	0.11211328
599.267	0.11218594
599.467	0.11224276
599.667	0.1123081
599.866	0.11231633
600.066	0.11243599
600.266	0.11248705
600.466	0.11252974
600.665	0.11255916
600.865	0.11260934
601.065	0.11269377
601.264	0.11278365
601.464	0.11285985
601.664	0.11300653
601.863	0.11309293
602.063	0.11320166
602.263	0.11322594
602.462	0.11326251
602.662	0.11328847
602.861	0.11342222
603.061	0.11341249
603.26	0.11343388
603.46	0.11348648
603.659	0.11360692
603.859	0.11365085
604.058	0.11371348
604.258	0.11372392
604.457	0.11382859
604.657	0.11387383
604.856	0.1138891
605.056	0.11390177
605.255	0.1139355
605.454	0.11398933
605.654	0.11394972
605.853	0.11388796
606.052	0.1139353
606.252	0.11398422
606.451	0.11402583
606.65	0.11408761
606.849	0.11405239
607.049	0.11415013
607.248	0.11424362
607.447	0.11429238
607.646	0.11433336
607.845	0.11435707
608.045	0.11434205
608.244	0.11444594
608.443	0.11445464
608.642	0.11452184
608.841	0.11445456
609.04	0.1144069
609.239	0.11438553
609.438	0.11435518
609.637	0.11437324
609.836	0.11436486
610.035	0.1143108
610.234	0.11438493
610.433	0.11442621
610.632	0.11445026
610.831	0.11455694
611.03	0.1145252
611.229	0.11460024
611.428	0.11462637
611.627	0.11463093
611.826	0.11470385
612.025	0.11478943
612.224	0.1147646
612.422	0.11482006
612.621	0.1148303
612.82	0.11485968
613.019	0.11491316
613.218	0.11488407
613.416	0.11482079
613.615	0.11487738
613.814	0.11486406
614.012	0.11479641
614.211	0.11474793
614.41	0.11471362
614.608	0.11465683
614.807	0.11464301
615.006	0.11462062
615.204	0.11458644
615.403	0.11458798
615.602	0.1146175
615.8	0.11462915
615.999	0.11460449
616.197	0.11457592
616.396	0.11458308
616.594	0.11448843
616.793	0.11448422
616.991	0.11439618
617.19	0.11427981
617.388	0.1143281
617.586	0.11429455
617.785	0.11418614
617.983	0.11421174
618.182	0.11416019
618.38	0.11412708
618.578	0.11413435
618.777	0.11407835
618.975	0.11405892
619.173	0.11405732
619.372	0.11401698
619.57	0.11396187
619.768	0.11398004
619.966	0.1139654
620.165	0.11387869
620.363	0.11383314
620.561	0.11367638
620.759	0.11358909
620.957	0.1135443
621.155	0.11347725
621.354	0.11336533
621.552	0.11335593
621.75	0.11327487
621.948	0.11333417
622.146	0.1133513
622.344	0.11332866
622.542	0.11327256
622.74	0.11329657
622.938	0.11323088
623.136	0.11325969
623.334	0.11318172
623.532	0.11305747
623.73	0.1129661
623.928	0.11291139
624.126	0.11280264
624.324	0.11277926
624.522	0.11259725
624.719	0.11250626
624.917	0.11246851
625.115	0.11238324
625.313	0.11235794
625.511	0.11237604
625.708	0.11219901
625.906	0.11218887
626.104	0.11214415
626.302	0.11211382
626.499	0.11204536
626.697	0.11190552
626.895	0.11173391
627.093	0.11173756
627.29	0.111667
627.488	0.1115822
627.686	0.11144738
627.883	0.11135508
628.081	0.11119552
628.278	0.1111867
628.476	0.11104419
628.673	0.11093476
628.871	0.11083947
629.068	0.11073887
629.266	0.11068839
629.463	0.11061481
629.661	0.11050174
629.858	0.11039652
630.056	0.11026635
630.253	0.1101824
630.451	0.11015264
630.648	0.10998805
630.845	0.10992805
631.043	0.10978707
631.24	0.10977209
631.438	0.10975547
631.635	0.10967923
631.832	0.10953109
632.029	0.10949632
632.227	0.10939752
632.424	0.1093219
632.621	0.10916126
632.818	0.1090214
633.016	0.10893949
633.213	0.10879268
633.41	0.10870228
633.607	0.10859955
633.804	0.10848701
634.001	0.10833936
634.199	0.10826591
634.396	0.10811934
634.593	0.10801272
634.79	0.1078895
634.987	0.10780779
635.184	0.10769407
635.381	0.10763009
635.578	0.10755008
635.775	0.10740291
635.972	0.10731924
636.169	0.10718888
636.366	0.10703433
636.563	0.10686205
636.76	0.10666967
636.957	0.10651025
637.153	0.10636113
637.35	0.1062473
637.547	0.10609568
637.744	0.10596331
637.941	0.10588546
638.138	0.10582358
638.334	0.10563526
638.531	0.10556533
638.728	0.1054487
638.925	0.10537771
639.121	0.10525626
639.318	0.10514674
639.515	0.10499886
639.711	0.1049264
639.908	0.10476
640.105	0.10459408
640.301	0.10443318
640.498	0.10425452
640.695	0.10411889
640.891	0.10398779
641.088	0.10379927
641.284	0.10369327
641.481	0.10357791
641.677	0.10346998
641.874	0.10336623
642.07	0.10324933
642.267	0.10317907
642.463	0.10306252
642.66	0.10294051
642.856	0.10278767
643.053	0.10254414
643.249	0.10239039
643.445	0.10220981
643.642	0.10203966
643.838	0.1018846
644.034	0.10171001
644.231	0.1015686
644.427	0.10149628
644.623	0.1013886
644.82	0.10127047
645.016	0.10106065
645.212	0.10084701
645.408	0.10069485
645.604	0.10055089
645.801	0.1003602
645.997	0.10019157
646.193	0.09995686
646.389	0.09986648
646.585	0.09980721
646.781	0.09968013
646.977	0.09953266
647.173	0.09943353
647.37	0.09924615
647.566	0.09913834
647.762	0.09893344
647.958	0.09879021
648.154	0.09860177
648.35	0.09846982
648.546	0.0982774
648.742	0.09818489
648.937	0.09797897
649.133	0.0978451
649.329	0.09771257
649.525	0.09756267
649.721	0.09738139
649.917	0.09726221
650.113	0.0970281
650.309	0.09694649
650.504	0.09679613
650.7	0.0965807
650.896	0.09644622
651.092	0.09627048
651.287	0.09609691
651.483	0.0960089
651.679	0.09579333
651.875	0.09563574
652.07	0.09548149
652.266	0.09529332
652.462	0.09515358
652.657	0.09497697
652.853	0.09474909
653.048	0.09464635
653.244	0.0944387
653.44	0.09427509
653.635	0.0940556
653.831	0.09389724
654.026	0.09372058
654.222	0.09354096
654.417	0.09339148
654.613	0.09323889
654.808	0.09306604
655.004	0.09292996
655.199	0.09274356
655.394	0.09259696
655.59	0.09248298
655.785	0.09222503
655.98	0.09209807
656.176	0.0919212
656.371	0.09184062
656.566	0.09169248
656.762	0.09148647
656.957	0.09131441
657.152	0.09118999
657.348	0.09101129
657.543	0.09083481
657.738	0.09061093
657.933	0.09040956
658.128	0.09021836
658.324	0.08999954
658.519	0.08979927
658.714	0.08958274
658.909	0.08938376
659.104	0.08918495
659.299	0.08898636
659.494	0.08881879
659.689	0.08864674
659.884	0.08847655
660.079	0.08828322
660.274	0.08812831
660.469	0.08793431
660.664	0.08782639
660.859	0.08769364
661.054	0.08754765
661.249	0.08742529
661.444	0.08728085
661.639	0.08712003
661.834	0.0869646
662.029	0.0867769
662.224	0.08658565
662.418	0.08642513
662.613	0.08618593
662.808	0.08596784
663.003	0.08580963
663.198	0.08564539
663.392	0.08549255
663.587	0.08542709
663.782	0.08522267
663.977	0.0850867
664.171	0.08497385
664.366	0.08474422
664.561	0.08454927
664.755	0.08430484
664.95	0.0840146
665.144	0.08382792
665.339	0.08364851
665.534	0.08347322
665.728	0.08332366
665.923	0.08317872
666.117	0.08305007
666.312	0.08285531
666.506	0.08275539
666.701	0.08257809
666.895	0.08236251
667.09	0.08221098
667.284	0.08202964
667.479	0.0818005
667.673	0.08164035
667.867	0.08142456
668.062	0.08123624
668.256	0.08110201
668.45	0.08094831
668.645	0.08078181
668.839	0.08067007
669.033	0.08050409
669.228	0.08034046
669.422	0.08018148
669.616	0.07996047
669.81	0.0797897
670.004	0.07956052
670.199	0.07934154
670.393	0.07915273
670.587	0.07895484
670.781	0.07874716
670.975	0.07861146
671.169	0.07837732
671.363	0.07821449
671.558	0.07802114
671.752	0.07785649
671.946	0.07769663
672.14	0.07753094
672.334	0.07729269
672.528	0.07721616
672.722	0.07705099
672.916	0.07690301
673.11	0.07669214
673.304	0.07652521
673.497	0.07630091
673.691	0.07618601
673.885	0.07592321
674.079	0.07576083
674.273	0.07557733
674.467	0.07547518
674.661	0.07531393
674.854	0.07522963
675.048	0.07504513
675.242	0.07489274
675.436	0.07470589
675.629	0.07451894
675.823	0.07431677
676.017	0.07412482
676.211	0.07386911
676.404	0.07369929
676.598	0.0735511
676.792	0.0734265
676.985	0.07326881
677.179	0.07309677
677.372	0.07291805
677.566	0.07282996
677.76	0.07268717
677.953	0.07248399
678.147	0.0723313
678.34	0.0722271
678.534	0.07203837
678.727	0.07195046
678.921	0.07177568
679.114	0.07157261
679.307	0.07139698
679.501	0.07121602
679.694	0.07104079
679.888	0.07091788
680.081	0.07068314
680.274	0.07049514
680.468	0.07034891
680.661	0.07021685
680.854	0.07011042
681.048	0.06995211
681.241	0.06978631
681.434	0.06962545
681.627	0.0694624
681.821	0.06929669
682.014	0.06911664
682.207	0.06882059
682.4	0.0686469
682.593	0.06850505
682.786	0.06832399
682.98	0.06818389
683.173	0.06806312
683.366	0.06788638
683.559	0.06774697
683.752	0.06754494
683.945	0.06734013
684.138	0.06723316
684.331	0.06704549
684.524	0.06686799
684.717	0.06668054
684.91	0.06655503
685.103	0.06642028
685.296	0.06623406
685.489	0.06603189
685.682	0.06584512
685.874	0.06569259
686.067	0.06558029
686.26	0.06539509
686.453	0.06521902
686.646	0.06511594
686.839	0.06500695
687.031	0.06487198
687.224	0.06469136
687.417	0.06457301
687.61	0.06443605
687.802	0.06429023
687.995	0.06414685
688.188	0.06397705
688.38	0.06381805
688.573	0.06370239
688.766	0.06356009
688.958	0.0634088
689.151	0.0632232
689.343	0.06308051
689.536	0.06293624
689.729	0.06282696
689.921	0.06268455
690.114	0.06249678
690.306	0.06234032
690.499	0.06227384
690.691	0.06214165
690.884	0.06202821
691.076	0.06189763
691.268	0.06174123
691.461	0.06158298
691.653	0.06151235
691.846	0.06136974
692.038	0.06120122
692.23	0.06098926
692.423	0.06082277
692.615	0.06070777
692.807	0.06058785
692.999	0.06036462
693.192	0.06018244
693.384	0.06003117
693.576	0.05990659
693.768	0.05976483
693.961	0.05953285
694.153	0.05935965
694.345	0.05924899
694.537	0.0591013
694.729	0.05898818
694.921	0.05884911
695.113	0.05873534
695.305	0.05859841
695.498	0.05844839
695.69	0.05832083
695.882	0.0581702
696.074	0.0580145
696.266	0.05789184
696.458	0.05772612
696.65	0.05762461
696.842	0.05755818
697.033	0.05744772
697.225	0.05735459
697.417	0.05723624
697.609	0.05714197
697.801	0.05703199
697.993	0.056914
698.185	0.05679572
698.376	0.0566549
698.568	0.05651308
698.76	0.05638049
698.952	0.05624637
699.144	0.05612071
699.335	0.05599561
699.527	0.05581596
699.719	0.05569955
699.91	0.05559508
700.102	0.05546414
700.294	0.05529786
700.485	0.05515073
700.677	0.05503123
700.869	0.05492524
701.06	0.05482909
701.252	0.05471427
701.443	0.05458267
701.635	0.05446185
701.826	0.05437607
702.018	0.05425167
702.209	0.05411361
702.401	0.05391652
702.592	0.05376234
702.784	0.05365966
702.975	0.0535273
703.166	0.05340715
703.358	0.05330211
703.549	0.05323734
703.741	0.05316368
703.932	0.05307978
704.123	0.05295477
704.315	0.05288195
704.506	0.05275837
704.697	0.05263011
704.888	0.0524561
705.08	0.0523091
705.271	0.05217966
705.462	0.05201224
705.653	0.0518958
705.844	0.05177153
706.035	0.05162184
706.227	0.05157699
706.418	0.05145638
706.609	0.05132143
706.8	0.05123769
706.991	0.05104452
707.182	0.05096445
707.373	0.05087819
707.564	0.05073149
707.755	0.05066146
707.946	0.05055946
708.137	0.05046932
708.328	0.0504047
708.519	0.05025153
708.71	0.05015381
708.901	0.05006842
709.092	0.04995454
709.283	0.04986707
709.473	0.04976007
709.664	0.04966706
709.855	0.04954665
710.046	0.0494494
710.237	0.04933488
710.427	0.04925355
710.618	0.04915785
710.809	0.04906003
711	0.04895676
711.19	0.04887133
711.381	0.04882441
711.572	0.04869908
711.762	0.04860091
711.953	0.04850965
712.144	0.04847373
712.334	0.04841475
712.525	0.04832335
712.715	0.04817709
712.906	0.04809341
713.097	0.04797545
713.287	0.04789824
713.478	0.04774159
713.668	0.04765334
713.859	0.04759695
714.049	0.04756486
714.239	0.04752907
714.43	0.04749336
714.62	0.0473797
714.811	0.04729163
715.001	0.04716167
715.191	0.04708813
715.382	0.04695117
715.572	0.04683464
715.762	0.04668017
715.953	0.04653997
716.143	0.04646422
716.333	0.04639881
716.523	0.04628722
716.714	0.0462269
716.904	0.04612279
717.094	0.04608654
717.284	0.04610978
717.474	0.04608665
717.664	0.04605506
717.855	0.04599308
718.045	0.04590629
718.235	0.04586443
718.425	0.04577261
718.615	0.04564954
718.805	0.04551402
718.995	0.04541964
719.185	0.04536093
719.375	0.04531665
719.565	0.04520561
719.755	0.04510788
719.945	0.0450023
720.135	0.04490442
720.325	0.0448019
720.515	0.04470932
720.704	0.04461433
720.894	0.04455733
721.084	0.04450091
721.274	0.04441121
721.464	0.04437359
721.654	0.04434165
721.843	0.04426756
722.033	0.04416101
722.223	0.04408456
722.413	0.04405417
722.602	0.04408418
722.792	0.0440334
722.982	0.04395743
723.171	0.04391792
723.361	0.04386141
723.55	0.04379703
723.74	0.04371062
723.93	0.04360862
724.119	0.04356711
724.309	0.04352354
724.498	0.0434526
724.688	0.04337934
724.877	0.04336801
725.067	0.04330122
725.256	0.04320828
725.446	0.04307839
725.635	0.04291219
725.825	0.04283089
726.014	0.04278108
726.203	0.042673
726.393	0.04259182
726.582	0.04255407
726.771	0.04250879
726.961	0.04249593
727.15	0.04243832
727.339	0.04230515
727.529	0.04224283
727.718	0.04214183
727.907	0.04206753
728.096	0.04199883
728.286	0.04197047
728.475	0.04190239
728.664	0.04186612
728.853	0.04170407
729.042	0.04167171
729.231	0.04163975
729.42	0.04158488
729.609	0.0414532
729.799	0.0413551
729.988	0.04130867
730.177	0.04129769
730.366	0.04121292
730.555	0.04105816
730.744	0.04093858
730.933	0.04090582
731.122	0.04083389
731.31	0.04075786
731.499	0.04068163
731.688	0.04063041
731.877	0.04062388
732.066	0.04064014
732.255	0.04051198
732.444	0.04040744
732.632	0.04032628
732.821	0.040254
733.01	0.04020526
733.199	0.04009691
733.388	0.0400033
733.576	0.04003048
733.765	0.04002898
733.954	0.04000562
734.142	0.03997917
734.331	0.03989532
734.52	0.0399093
734.708	0.03985142
734.897	0.03972902
735.086	0.03971449
735.274	0.03963003
735.463	0.0396191
735.651	0.0395756
735.84	0.03947556
736.028	0.03943012
736.217	0.03943159
736.405	0.03933216
736.594	0.0393096
736.782	0.03921027
736.971	0.03913023
737.159	0.0390758
737.347	0.03903711
737.536	0.03896882
737.724	0.0389318
737.912	0.03886953
738.101	0.03884587
738.289	0.03883597
738.477	0.03877528
738.666	0.03866105
738.854	0.03860806
739.042	0.03851946
739.23	0.03846646
739.418	0.03838591
739.607	0.03830918
739.795	0.03824347
739.983	0.03822086
740.171	0.03817582
740.359	0.03817302
740.547	0.03813106
740.735	0.03806003
740.923	0.03798942
741.112	0.03793742
741.3	0.03784889
741.488	0.03778536
741.676	0.03768289
741.864	0.03763355
742.052	0.0375989
742.239	0.03761475
742.427	0.03761448
742.615	0.03758169
742.803	0.03748804
742.991	0.03742511
743.179	0.03738414
743.367	0.03736166
743.555	0.03729435
743.742	0.03723672
743.93	0.03719287
744.118	0.03720047
744.306	0.03717922
744.494	0.03716976
744.681	0.03713918
744.869	0.03709391
745.057	0.03703939
745.244	0.03703001
745.432	0.03701749
745.62	0.0369852
745.807	0.03693204
745.995	0.0368708
746.182	0.03685329
746.37	0.03681543
746.558	0.03677466
746.745	0.03671348
746.933	0.03668797
747.12	0.03661007
747.308	0.03659833
747.495	0.03654197
747.683	0.03648123
747.87	0.03646005
748.057	0.03637508
748.245	0.03631477
748.432	0.03627277
748.62	0.03622289
748.807	0.03614871
748.994	0.03613234
749.182	0.03608579
749.369	0.03603726
749.556	0.03604666
749.743	0.03601045
749.931	0.03597668
750.118	0.03597611
750.305	0.03596833
750.492	0.03593234
750.68	0.03593329
750.867	0.03584092
751.054	0.03581781
751.241	0.03579199
751.428	0.03575596
751.615	0.03571095
751.802	0.03569213
751.989	0.03564985
752.176	0.0356338
752.363	0.03560031
752.55	0.03557232
752.737	0.03553304
752.924	0.03549583
753.111	0.03545575
753.298	0.03543204
753.485	0.03540962
753.672	0.03539845
753.859	0.03534501
754.046	0.03533368
754.233	0.03526178
754.42	0.03514535
754.606	0.03509002
754.793	0.03501547
754.98	0.03496562
755.167	0.03488074
755.353	0.03478862
755.54	0.0347717
755.727	0.03478206
755.914	0.03473891
756.1	0.03474634
756.287	0.03465488
756.474	0.03465827
756.66	0.03459541
756.847	0.03454999
757.033	0.03449226
757.22	0.03449147
757.407	0.03443579
757.593	0.03443368
757.78	0.0344091
757.966	0.03446352
758.153	0.0344606
758.339	0.03444573
758.526	0.03442566
758.712	0.03439288
758.898	0.03437132
759.085	0.03436225
759.271	0.03430186
759.458	0.03428487
759.644	0.03427591
759.83	0.0342233
760.017	0.03421815
760.203	0.03418134
760.389	0.03409885
760.576	0.03403561
760.762	0.03393823
760.948	0.03390486
761.134	0.03386376
761.32	0.03380396
761.507	0.03378664
761.693	0.03373678
761.879	0.03370889
762.065	0.03369111
762.251	0.03369294
762.437	0.03368192
762.623	0.03365021
762.809	0.03361216
762.995	0.03360641
763.181	0.03360468
763.367	0.03360905
763.553	0.03354873
763.739	0.03356883
763.925	0.03353494
764.111	0.03346919
764.297	0.03344376
764.483	0.03339098
764.669	0.03329713
764.855	0.03319122
765.041	0.03306008
765.227	0.0329671
765.412	0.03290177
765.598	0.03280101
765.784	0.03273957
765.97	0.03271764
766.156	0.03270338
766.341	0.03266792
766.527	0.03270443
766.713	0.03269369
766.898	0.03270273
767.084	0.03265693
767.27	0.03263659
767.455	0.03265486
767.641	0.03268744
767.827	0.03264978
768.012	0.03265754
768.198	0.03265117
768.383	0.0326349
768.569	0.0326253
768.754	0.03257947
768.94	0.03248129
769.125	0.03241885
769.311	0.03234511
769.496	0.03225421
769.682	0.0322237
769.867	0.0321974
770.052	0.03214623
770.238	0.03214553
770.423	0.03221153
770.608	0.03221609
770.794	0.0322366
770.979	0.03221381
771.164	0.03215291
771.35	0.03210608
771.535	0.03205735
771.72	0.03195774
771.905	0.03190979
772.09	0.03187395
772.276	0.03185391
772.461	0.03186342
772.646	0.03187433
772.831	0.03184238
773.016	0.03180267
773.201	0.03174024
773.386	0.03174392
773.571	0.03172123
773.756	0.03172519
773.941	0.03167746
774.126	0.03168759
774.311	0.0316738
774.496	0.03165446
774.681	0.03151357
774.866	0.03143869
775.051	0.03131511
775.236	0.03128963
775.421	0.0312588
775.606	0.0312307
775.791	0.0312539
775.976	0.03131496
776.16	0.03135798
776.345	0.03133997
776.53	0.03129864
776.715	0.03125914
776.899	0.03122572
777.084	0.03116451
777.269	0.03110409
777.454	0.03104067
777.638	0.03099806
777.823	0.0309848
778.008	0.03091311
778.192	0.03091837
778.377	0.03092073
778.561	0.03085045
778.746	0.03081885
778.931	0.03085299
779.115	0.03081559
779.3	0.03077504
779.484	0.0306829
779.669	0.03061917
779.853	0.03054619
780.037	0.03047521
780.222	0.03040266
780.406	0.03035255
780.591	0.0303654
780.775	0.0303552
780.959	0.03031542
781.144	0.03038119
781.328	0.03034454
781.512	0.03033972
781.697	0.0302575
781.881	0.03018837
782.065	0.03016391
782.249	0.03013872
782.434	0.03008639
782.618	0.03009912
782.802	0.0300709
782.986	0.03008359
783.17	0.03006853
783.354	0.03006709
783.539	0.0300157
783.723	0.02994464
783.907	0.02985502
784.091	0.02974236
784.275	0.02968848
784.459	0.02966303
784.643	0.02957297
784.827	0.02958523
785.011	0.02959357
785.195	0.02960815
785.379	0.02961567
785.563	0.02959627
785.747	0.02959153
785.93	0.02956566
786.114	0.02952381
786.298	0.0294767
786.482	0.0294152
786.666	0.02937087
786.85	0.02932839
787.033	0.0293127
787.217	0.02932201
787.401	0.02930737
787.585	0.02932101
787.768	0.02931302
787.952	0.02929124
788.136	0.02927603
788.319	0.0291818
788.503	0.02914037
788.687	0.02905399
788.87	0.0289672
789.054	0.0289045
789.237	0.02891516
789.421	0.02885964
789.605	0.02883043
789.788	0.02875227
789.972	0.02875462
790.155	0.0287653
790.338	0.02877971
790.522	0.02867785
790.705	0.02862893
790.889	0.02856563
791.072	0.0285343
791.256	0.02844025
791.439	0.0283814
791.622	0.02832579
791.806	0.02834492
791.989	0.02838741
792.172	0.02837814
792.355	0.02835849
792.539	0.02837231
792.722	0.02830431
792.905	0.02827452
793.088	0.02822788
793.271	0.02816589
793.455	0.02813188
793.638	0.02817266
793.821	0.02819822
794.004	0.02821766
794.187	0.02822653
794.37	0.0282099
794.553	0.02821224
794.736	0.02816755
794.919	0.02805703
795.102	0.02799688
795.285	0.02799062
795.468	0.02788666
795.651	0.02781832
795.834	0.02779699
796.017	0.02785453
796.2	0.0278596
796.383	0.02777998
796.566	0.02775404
796.749	0.02772851
796.931	0.02773016
797.114	0.02769761
797.297	0.0276082
797.48	0.02754137
797.663	0.02752686
797.845	0.02745277
798.028	0.02744913
798.211	0.02736184
798.393	0.02729651
798.576	0.02725405
798.759	0.02723537
798.941	0.02715944
799.124	0.02707476
799.307	0.02700658
799.489	0.0269568
799.672	0.02689534
799.854	0.02687955
800.037	0.02681188
800.219	0.02679075
800.402	0.02685273
800.584	0.02689569
800.767	0.02691549
800.949	0.02684795
801.132	0.02676512
801.314	0.02671825
801.496	0.0266578
801.679	0.02653617
801.861	0.02643888
802.043	0.02640116
802.226	0.02642093
802.408	0.02644097
802.59	0.02643276
802.772	0.02641451
802.955	0.02645606
803.137	0.02646677
803.319	0.02635673
803.501	0.0262306
803.684	0.02613505
803.866	0.02606936
804.048	0.02603454
804.23	0.02591831
804.412	0.02584285
804.594	0.02581839
804.776	0.02590001
804.958	0.02588598
805.14	0.02587772
805.322	0.02582337
805.504	0.02582869
805.686	0.02575207
805.868	0.02574756
806.05	0.02563344
806.232	0.02554941
806.414	0.02550739
806.596	0.02549299
806.778	0.02543794
806.96	0.02541322
807.141	0.02541437
807.323	0.02541419
807.505	0.02540487
807.687	0.02536547
807.869	0.02537396
808.05	0.02537472
808.232	0.02534666
808.414	0.02523961
808.595	0.02511388
808.777	0.0250303
808.959	0.02497366
809.14	0.02493005
809.322	0.02487928
809.504	0.02485913
809.685	0.02487805
809.867	0.02496187
810.048	0.02498501
810.23	0.02496789
810.411	0.02486841
810.593	0.02482602
810.774	0.0247756
810.956	0.02471098
811.137	0.02469343
811.319	0.02464092
811.5	0.024634
811.681	0.02460029
811.863	0.0245034
812.044	0.0244626
812.225	0.02442955
812.407	0.02429803
812.588	0.02429384
812.769	0.02427106
812.951	0.02428494
813.132	0.02427705
813.313	0.02425757
813.494	0.02422972
813.675	0.02427141
813.857	0.02421848
814.038	0.02411342
814.219	0.02407055
814.4	0.02408266
814.581	0.02402397
814.762	0.02396779
814.943	0.02389752
815.124	0.02386574
815.305	0.02383792
815.486	0.02378049
815.667	0.02366132
815.848	0.02363022
816.029	0.02352885
816.21	0.02342356
816.391	0.02336625
816.572	0.02336591
816.753	0.02325334
816.934	0.02326346
817.115	0.02320031
817.295	0.02322918
817.476	0.02323528
817.657	0.02317973
817.838	0.02308895
818.019	0.02308647
818.199	0.02303566
818.38	0.02306481
818.561	0.02298521
818.741	0.02295415
818.922	0.02297957
819.103	0.02295638
819.283	0.02297432
819.464	0.02295467
819.645	0.02290431
819.825	0.02292861
820.006	0.0228621
820.186	0.02277929
820.367	0.02276206
820.547	0.02264902
820.728	0.02252292
820.908	0.02248869
821.089	0.02243194
821.269	0.02239582
821.45	0.02238921
821.63	0.0223423
821.81	0.02236857
821.991	0.02236752
822.171	0.02225581
822.351	0.02220152
822.532	0.02215001
822.712	0.02203718
822.892	0.02197394
823.072	0.02181287
823.253	0.02171213
823.433	0.02166222
823.613	0.02159943
823.793	0.02156686
823.973	0.02157422
824.154	0.02157548
824.334	0.02166241
824.514	0.02169592
824.694	0.02164269
824.874	0.02163666
825.054	0.02154902
825.234	0.02150325
825.414	0.02133599
825.594	0.02120703
825.774	0.02118046
825.954	0.02118858
826.134	0.02116303
826.314	0.02121598
826.494	0.0212444
826.674	0.02131036
826.854	0.02139147
827.033	0.02128579
827.213	0.02118878
827.393	0.02112264
827.573	0.02100357
827.753	0.02089889
827.932	0.02081776
828.112	0.02070583
828.292	0.02061596
828.472	0.02063316
828.651	0.02059283
828.831	0.02058898
829.011	0.02055723
829.19	0.0206019
829.37	0.02063714
829.549	0.02066667
829.729	0.02065667
829.909	0.02059063
830.088	0.02053601
830.268	0.02043371
830.447	0.02029651
830.627	0.02017242
830.806	0.02023087
830.986	0.02015894
831.165	0.02012507
831.344	0.02018435
831.524	0.02018651
831.703	0.02020028
831.883	0.02016924
832.062	0.0200773
832.241	0.0200225
832.421	0.01997118
832.6	0.01983579
832.779	0.01974053
832.958	0.0196213
833.138	0.01954551
833.317	0.01953252
833.496	0.01942937
833.675	0.01941224
833.854	0.01941441
834.034	0.01941269
834.213	0.01935849
834.392	0.01929381
834.571	0.01917141
834.75	0.01913234
834.929	0.01904852
835.108	0.01883328
835.287	0.01871421
835.466	0.01869363
835.645	0.01868866
835.824	0.01859974
836.003	0.01859432
836.182	0.0185965
836.361	0.01864157
836.54	0.01867682
836.719	0.01862972
836.897	0.01854909
837.076	0.01854883
837.255	0.01850891
837.434	0.01839357
837.613	0.0183765
837.791	0.01832782
837.97	0.01829331
838.149	0.01831978
838.328	0.01837762
838.506	0.01833363
838.685	0.01834818
838.864	0.01830102
839.042	0.01824585
839.221	0.01822626
839.4	0.01812693
839.578	0.01792061
839.757	0.01784966
839.935	0.01777287
840.114	0.01774392
840.292	0.01770658
840.471	0.01768278
840.649	0.01768693
840.828	0.0176533
841.006	0.01772542
841.185	0.01766517
841.363	0.01758708
841.541	0.01751406
841.72	0.01740896
841.898	0.01728496
842.076	0.01729798
842.255	0.0171543
842.433	0.01713329
842.611	0.01709674
842.789	0.01709635
842.968	0.01714254
843.146	0.01719849
843.324	0.01718363
843.502	0.0172237
843.68	0.01727697
843.859	0.01734654
844.037	0.01727631
844.215	0.01720167
844.393	0.01712596
844.571	0.01707821
844.749	0.01697558
844.927	0.01685015
845.105	0.01674244
845.283	0.01670985
845.461	0.01664425
845.639	0.01664925
845.817	0.01658057
845.995	0.01656949
846.173	0.01653274
846.351	0.01647265
846.529	0.01641394
846.706	0.01631336
846.884	0.01621741
847.062	0.0161753
847.24	0.01613417
847.418	0.01603612
847.595	0.01594439
847.773	0.01590699
847.951	0.01593041
848.129	0.01593611
848.306	0.01598619
848.484	0.01592105
848.662	0.01592379
848.839	0.01601071
849.017	0.01611024
849.194	0.01617316
849.372	0.0161326
849.549	0.01606055
849.727	0.01601792
849.905	0.01600828
850.082	0.01587304
850.26	0.01572419
850.437	0.01560737
850.614	0.01555975
850.792	0.01553174
850.969	0.01552453
851.147	0.01555197
851.324	0.01556374
851.501	0.01561332
851.679	0.0155656
851.856	0.01547358
852.033	0.01539552
852.211	0.01531997
852.388	0.01513752
852.565	0.01501986
852.742	0.0149172
852.92	0.01488518
853.097	0.01484964
853.274	0.01483298
853.451	0.01477386
853.628	0.01490749
853.805	0.0149364
853.982	0.01483989
854.159	0.01472881
854.336	0.01472881
854.514	0.01458835
854.691	0.01453812
854.868	0.01437709
855.045	0.01429184
855.221	0.01422798
855.398	0.0142379
855.575	0.01409563
855.752	0.0141263
855.929	0.01415544
856.106	0.01420242
856.283	0.01427259
856.46	0.01423553
856.637	0.01424735
856.813	0.01428418
856.99	0.01426182
857.167	0.0141368
857.344	0.01398928
857.52	0.01375872
857.697	0.01369967
857.874	0.0136518
858.05	0.01362133
858.227	0.0134967
858.404	0.01354991
858.58	0.01357977
858.757	0.01370243
858.933	0.01376306
859.11	0.01370083
859.287	0.01368845
859.463	0.01375295
859.64	0.01364255
859.816	0.01352901
859.993	0.01331836
860.169	0.01326065
860.345	0.01315785
860.522	0.01308155
860.698	0.01303451
860.875	0.01302269
861.051	0.01301183
861.227	0.01309082
861.404	0.01309187
861.58	0.01310296
861.756	0.01314226
861.932	0.01309354
862.109	0.01306631
862.285	0.01305048
862.461	0.01294182
862.637	0.01277562
862.813	0.01271025
862.99	0.01256407
863.166	0.01245978
863.342	0.01235882
863.518	0.01233156
863.694	0.01236676
863.87	0.01237715
864.046	0.01238189
864.222	0.01243764
864.398	0.01249496
864.574	0.01253071
864.75	0.01243025
864.926	0.01236212
865.102	0.0123265
865.278	0.01220008
865.454	0.01210995
865.63	0.01203644
865.805	0.01201013
865.981	0.01199869
866.157	0.01199795
866.333	0.011984
866.509	0.01205675
866.684	0.01200921
866.86	0.01205933
867.036	0.01197067
867.212	0.0119258
867.387	0.01188637
867.563	0.01183035
867.739	0.01172133
867.914	0.01170122
868.09	0.01155978
868.265	0.01154451
868.441	0.01151104
868.617	0.0114774
868.792	0.01146944
868.968	0.01149026
869.143	0.01146271
869.319	0.01150298
869.494	0.01155215
869.67	0.01160645
869.845	0.01154933
870.02	0.01151547
870.196	0.01145067
870.371	0.0113401
870.546	0.01126036
870.722	0.01116872
870.897	0.01100223
871.072	0.01093939
871.248	0.01085818
871.423	0.01075418
871.598	0.01084924
871.773	0.0107461
871.949	0.01066537
872.124	0.01075179
872.299	0.01077632
872.474	0.01076558
872.649	0.0108108
872.824	0.01068509
872.999	0.01069576
873.174	0.01068087
873.349	0.01060262
873.524	0.01054374
873.699	0.01042589
873.874	0.01034558
874.049	0.01031262
874.224	0.01029371
874.399	0.0103006
874.574	0.01021775
874.749	0.01030303
874.924	0.01038313
875.099	0.01047961
875.274	0.01045574
875.449	0.01043323
875.623	0.01039017
875.798	0.01042042
875.973	0.01029214
876.148	0.01018179
876.322	0.01016056
876.497	0.01017593
876.672	0.01014103
876.846	0.01010441
877.021	0.00999585
877.196	0.00998706
877.37	0.0100933
877.545	0.01005009
877.72	0.00999168
877.894	0.01000276
878.069	0.00999031
878.243	0.01010324
878.418	0.01006314
878.592	0.00992609
878.767	0.00972485
878.941	0.00968249
879.116	0.00958561
879.29	0.00951787
879.464	0.00946505
879.639	0.00931798
879.813	0.00936366
879.987	0.00944355
880.162	0.0094849
880.336	0.00941384
880.51	0.00940287
880.685	0.0093169
880.859	0.00939799
881.033	0.00934193
881.207	0.00932213
881.381	0.00918874
881.556	0.00919163
881.73	0.0091324
881.904	0.00908813
882.078	0.00904245
882.252	0.00892562
882.426	0.00877955
882.6	0.00886608
882.774	0.00883955
882.948	0.00885021
883.122	0.00887537
883.296	0.00885877
883.47	0.00886352
883.644	0.00891568
883.818	0.00872972
883.992	0.00871141
884.166	0.00862315
884.34	0.00853764
884.514	0.00842142
884.687	0.00851401
884.861	0.0084122
885.035	0.00847886
885.209	0.00850471
885.382	0.00852545
885.556	0.00864612
885.73	0.00880979
885.904	0.00872466
886.077	0.00880848
886.251	0.00881116
886.425	0.00874027
886.598	0.00863948
886.772	0.00848386
886.945	0.00831414
887.119	0.0082764
887.292	0.00821154
887.466	0.00813765
887.64	0.00801132
887.813	0.00808499
887.986	0.00805629
888.16	0.00804631
888.333	0.00794463
888.507	0.00799385
888.68	0.00804052
888.854	0.00816899
889.027	0.0079575
889.2	0.00784314
889.374	0.00779568
889.547	0.00778295
889.72	0.00765469
889.893	0.00757958
890.067	0.00746256
890.24	0.00752536
890.413	0.0075455
890.586	0.00753931
890.759	0.00760044
890.933	0.00756289
891.106	0.00758567
891.279	0.00768797
891.452	0.00772443
891.625	0.00771377
891.798	0.00767593
891.971	0.00759767
892.144	0.00765046
892.317	0.00753676
892.49	0.00734107
892.663	0.00722103
892.836	0.00716546
893.009	0.00725747
893.182	0.00716109
893.355	0.00698895
893.527	0.00696496
893.7	0.00707689
893.873	0.00711534
894.046	0.00708867
894.219	0.0070246
894.391	0.00707663
894.564	0.00712871
894.737	0.00708034
894.91	0.0069986
895.082	0.0069302
895.255	0.00684101
895.428	0.00669786
895.6	0.00670124
895.773	0.00674286
895.945	0.00677251
896.118	0.00679749
896.291	0.00678406
896.463	0.00689625
896.636	0.00698396
896.808	0.00700291
896.981	0.00692864
897.153	0.00692931
897.326	0.00690364
897.498	0.0068708
897.67	0.00665858
897.843	0.0065372
898.015	0.00642146
898.187	0.00635741
898.36	0.00626315
898.532	0.00615247
898.704	0.00617488
898.877	0.00632234
899.049	0.00636949
899.221	0.0064034
899.393	0.00657251
899.566	0.00667698
899.738	0.00675385
899.91	0.00665142
900.082	0.00663753
900.254	0.00656769
900.426	0.00648002
900.598	0.00629349
900.77	0.0061239
900.942	0.00592954
901.114	0.00600779
901.286	0.00597185
901.458	0.00593096
901.63	0.00584918
901.802	0.00586567
901.974	0.00595202
902.146	0.00601787
902.318	0.00599846
902.49	0.00596891
902.662	0.00597732
902.834	0.00608875
903.005	0.00601883
903.177	0.00582308
903.349	0.0056977
903.521	0.0056167
903.693	0.00549637
903.864	0.00535634
904.036	0.00519663
904.208	0.0052482
904.379	0.00536811
904.551	0.00545987
904.723	0.00546853
904.894	0.00555737
905.066	0.0057368
905.237	0.00587248
905.409	0.00575594
905.58	0.0056883
905.752	0.00572322
905.923	0.00567848
906.095	0.00556118
906.266	0.00539565
906.438	0.00527822
906.609	0.00524603
906.78	0.00518172
906.952	0.00503044
907.123	0.00502449
907.295	0.00513058
907.466	0.00514571
907.637	0.00507177
907.808	0.00503724
907.98	0.00504618
908.151	0.00499344
908.322	0.00500277
908.493	0.00482708
908.665	0.00479838
908.836	0.00484978
909.007	0.00490468
909.178	0.00489489
909.349	0.00488612
909.52	0.00479584
909.691	0.00486256
909.862	0.00480773
910.033	0.00473789
910.204	0.0046764
910.375	0.00479141
910.546	0.00487474
910.717	0.00495628
910.888	0.00505371
911.059	0.00514391
911.23	0.00516917
911.401	0.00520723
911.572	0.00510518
911.742	0.00510164
911.913	0.00501877
912.084	0.00487537
912.255	0.00470336
912.426	0.00462933
912.596	0.00458051
912.767	0.00446721
912.938	0.00431461
913.108	0.00417704
913.279	0.0041925
913.45	0.00436271
913.62	0.00443108
913.791	0.0045048
913.962	0.00460207
914.132	0.00466935
914.303	0.00480351
914.473	0.00480448
914.644	0.0046568
914.814	0.00457508
914.985	0.00452536
915.155	0.00434106
915.326	0.00423174
915.496	0.00409897
915.666	0.00402191
915.837	0.0040226
916.007	0.00398004
916.177	0.00397767
916.348	0.00408941
916.518	0.004158
916.688	0.00437771
916.858	0.00450027
917.029	0.00454955
917.199	0.00459494
917.369	0.00446415
917.539	0.00442423
917.709	0.00450216
917.88	0.00433729
918.05	0.00417616
918.22	0.00405703
918.39	0.00407042
918.56	0.00409901
918.73	0.00397326
918.9	0.00378477
919.07	0.00369212
919.24	0.00369104
919.41	0.0036748
919.58	0.00369564
919.75	0.00369584
919.92	0.00386056
920.09	0.00395578
920.26	0.00400362
920.429	0.0040543
920.599	0.00418931
920.769	0.00415248
920.939	0.00404009
921.109	0.00398642
921.278	0.0038339
921.448	0.00382337
921.618	0.0038162
921.787	0.00362
921.957	0.00364753
922.127	0.00361192
922.296	0.00354552
922.466	0.00361006
922.636	0.0035864
922.805	0.00354886
922.975	0.00361513
923.144	0.00350729
923.314	0.00355135
923.483	0.00344545
923.653	0.00341265
923.822	0.00340165
923.992	0.00326351
924.161	0.00320145
924.331	0.00314211
924.5	0.00305613
924.669	0.00316172
924.839	0.00316726
925.008	0.00320814
925.177	0.00317613
925.347	0.00314814
925.516	0.00324563
925.685	0.00339079
925.854	0.00341763
926.023	0.00342374
926.193	0.00338469
926.362	0.00355135
926.531	0.00377834
926.7	0.0037065
926.869	0.00374564
927.038	0.003537
927.207	0.00363017
927.376	0.00365584
927.545	0.00361166
927.715	0.00331966
927.884	0.00317619
928.052	0.00309386
928.221	0.00327607
928.39	0.00305942
928.559	0.00299454
928.728	0.00291395
928.897	0.00312832
929.066	0.00333968
929.235	0.00314934
929.404	0.00315206
929.572	0.00334741
929.741	0.00341087
929.91	0.00338563
930.079	0.00337215
930.247	0.00333184
930.416	0.0035386
930.585	0.00347389
930.753	0.00347231
930.922	0.00323337
931.091	0.00334256
931.259	0.00321482
931.428	0.00319049
931.596	0.00303378
931.765	0.00315841
931.934	0.00310805
932.102	0.0031611
932.27	0.00304174
932.439	0.00312093
932.607	0.00312605
932.776	0.00322699
932.944	0.00307268
933.113	0.00309964
933.281	0.00312192
933.449	0.00318252
933.618	0.00313717
933.786	0.00309763
933.954	0.00296155
934.123	0.00303694
934.291	0.00310068
934.459	0.00326767
934.627	0.00324322
934.795	0.00310891
934.964	0.00311783
935.132	0.00339951
935.3	0.00338686
935.468	0.00332085
935.636	0.00352055
935.804	0.00358064
935.972	0.00365112
936.14	0.00349514
936.308	0.00352976
936.476	0.00357147
936.644	0.00375941
936.812	0.00350433
936.98	0.00362173
937.148	0.00392202
937.316	0.00423802
937.484	0.00389213
937.652	0.0038537
937.82	0.0035063
937.987	0.00353938
938.155	0.00353503
938.323	0.00358446
938.491	0.00382834
938.658	0.00395673
938.826	0.00459514
938.994	0.00515981
939.162	0.00564672
939.329	0.00556617
939.497	0.00586112
939.665	0.00607675
939.832	0.00678182
940	0.00609629
940.167	0.00616791
940.335	0.00597025
940.502	0.00628673
940.67	0.00569385
940.837	0.00493412
941.005	0.00452171
941.172	0.00490313
941.34	0.00479345
941.507	0.00424789
941.674	0.00496962
941.842	0.00526627
942.009	0.00651122
942.177	0.00696977
942.344	0.00730548
942.511	0.00709125
942.678	0.00812044
942.846	0.00793231
943.013	0.00845393
943.18	0.00808899
943.347	0.00813306
943.514	0.00746808
943.682	0.00808451
943.849	0.00773267
944.016	0.00746957
944.183	0.00708139
944.35	0.00654049
944.517	0.00645205
944.684	0.00655101
944.851	0.00615824
945.018	0.00652375
945.185	0.00657343
945.352	0.00593365
945.519	0.00593541
945.686	0.00607147
945.853	0.00673859
946.02	0.00627347
946.187	0.00604397
946.353	0.00530093
946.52	0.00510916
946.687	0.00499103
946.854	0.00468256
947.021	0.00466998
947.187	0.00533087
947.354	0.00544796
947.521	0.00548941
947.687	0.00621549
947.854	0.00682036
948.021	0.00723295
948.187	0.00648983
948.354	0.00639903
948.52	0.00588112
948.687	0.00612981
948.854	0.00578877
949.02	0.00575692
949.187	0.0058972
949.353	0.00623672
949.52	0.00557078
949.686	0.00576218
949.852	0.00531567
950.019	0.00577212
950.185	0.00576622
950.352	0.00475187
950.518	0.00421603
950.684	0.00464937
950.851	0.00432016
951.017	0.00469939
951.183	0.00450586
951.349	0.00359924
951.516	0.00322158
951.682	0.00344802
951.848	0.00367334
952.014	0.00413136
952.18	0.00434467
952.346	0.00401768
952.512	0.00412681
952.679	0.004652
952.845	0.00457617
953.011	0.0040544
953.177	0.00340473
953.343	0.00339539
953.509	0.00294825
953.675	0.0027626
953.841	0.00250977
954.007	0.00206685
954.172	0.00201148
954.338	0.00184706
954.504	0.00130883
954.67	0.00210619
954.836	0.00231793
955.002	0.00261854
955.167	0.00266343
955.333	0.00225141
955.499	0.00250679
955.665	0.00281896
955.83	0.00233164
955.996	0.00251429
956.162	0.00253656
956.327	0.00308076
956.493	0.0032315
956.659	0.0030415
956.824	0.00290624
956.99	0.00347728
957.155	0.00320679
957.321	0.00260242
957.486	0.00245884
957.652	0.00261789
957.817	0.00285519
957.983	0.00272981
958.148	0.00227385
958.314	0.00235708
958.479	0.002501
958.644	0.00224275
958.81	0.00174347
958.975	0.00137783
959.14	0.00139604
959.306	0.00175047
959.471	0.00178706
959.636	0.00193055
959.801	0.00154042
959.967	0.0016449
960.132	0.00189045
960.297	0.00150102
960.462	0.00143717
960.627	0.00133263
960.792	0.00142893
960.957	0.00153027
961.123	0.00202585
961.288	0.00182773
961.453	0.00230361
961.618	0.00174737
961.783	0.00199915
961.948	0.00181957
962.113	0.00206184
962.277	0.00171147
962.442	0.00180471
962.607	0.00175255
962.772	0.00208863
962.937	0.00174935
963.102	0.00225984
963.267	0.00258248
963.431	0.00261582
963.596	0.0024446
963.761	0.00255792
963.926	0.00216478
964.09	0.00215067
964.255	0.00186872
964.42	0.00179444
964.584	0.00175625
964.749	0.00195648
964.914	0.00130031
965.078	0.0010987
965.243	0.00109767
965.407	0.0010801
965.572	0.00084288
965.736	0.00093837
965.901	0.001075
966.065	0.00137631
966.23	0.00159507
966.394	0.00158398
966.559	0.00162264
966.723	0.00143598
966.887	0.00125712
967.052	0.00140851
967.216	0.00133926
967.38	0.00186071
967.545	0.00194468
967.709	0.0020722
967.873	0.00226414
968.037	0.00238632
968.202	0.00194615
968.366	0.0022235
968.53	0.00201427
968.694	0.0022737
968.858	0.00218417
969.022	0.00232399
969.187	0.00216069
969.351	0.0023962
969.515	0.00237615
969.679	0.00207347
969.843	0.00162499
970.007	0.00109415
970.171	0.0006743
970.335	0.00079365
970.499	0.00077859
970.662	0.00066906
970.826	0.00080299
970.99	0.00146514
971.154	0.00127378
971.318	0.00174886
971.482	0.00174068
971.645	0.00169563
971.809	0.00169101
971.973	0.00175698
972.137	0.00134261
972.3	0.00189065
972.464	0.00157989
972.628	0.00133631
972.791	0.00138872
972.955	0.00140513
973.119	0.00148062
973.282	0.00146715
973.446	0.00129122
973.609	0.00153954
973.773	0.00204518
973.936	0.00218025
974.1	0.00193276
974.263	0.0017882
974.427	0.00206399
974.59	0.0019025
974.754	0.00202929
974.917	0.00197694
975.08	0.00146364
975.244	0.00160465
975.407	0.00200696
975.57	0.00172808
975.734	0.00196781
975.897	0.00163592
976.06	0.00144195
976.223	0.00213834
976.387	0.0019965
976.55	0.00181841
976.713	0.00164381
976.876	0.00152477
977.039	0.00156505
977.202	0.00128175
977.365	0.00088045
977.528	0.00117069
977.692	0.0009969
977.855	0.00145927
978.018	0.00153237
978.181	0.00144687
978.344	0.00186714
978.506	0.00205947
978.669	0.00159344
978.832	0.00131559
978.995	0.00043275
979.158	0.00037261
979.321	0.00036573
979.484	0.00034552
979.646	0.00005211
979.809	0.00089478
979.972	0.00123646
980.135	0.00172058
980.297	0.00150818
980.46	0.00156636
980.623	0.00204074
980.786	0.00196996
980.948	0.00140648
981.111	0.00106063
981.273	0.00154033
981.436	0.00217777
981.599	0.00219496
981.761	0.00181417
981.924	0.0020477
982.086	0.00241773
982.249	0.00296974
982.411	0.00269855
982.573	0.00206175
982.736	0.0022252
982.898	0.00185774
983.061	0.00159241
983.223	0.00108771
983.385	0.00048624
983.548	-0.00036336
983.71	-0.0000419
983.872	-0.00032545
984.034	-0.00012148
984.197	0.00039489
984.359	0.00108741
984.521	0.00147914
984.683	0.0017431
984.845	0.00155141
985.008	0.00144345
985.17	0.00182042
985.332	0.00175612
985.494	0.00131419
985.656	0.00180729
985.818	0.00243595
985.98	0.00288386
986.142	0.00333903
986.304	0.00220839
986.466	0.0021069
986.628	0.00258969
986.79	0.00147753
986.952	0.00149586
987.113	0.00144591
987.275	0.00129767
987.437	0.00185988
987.599	0.00115869
987.761	0.00055053
987.922	0.00095502
988.084	0.00049094
988.246	0.00011242
988.408	-0.0000569
988.569	0.00012288
988.731	0.00028681
988.893	0.0007125
989.054	0.00072579
989.216	0.00114209
989.377	0.00117486
989.539	0.00148352
989.701	0.00182176
989.862	0.00225375
990.024	0.00206096
990.185	0.00248382
990.347	0.00254518
990.508	0.0024743
990.669	0.00247364
990.831	0.00181229
990.992	0.00188296
991.154	0.00153676
991.315	0.00166911
991.476	0.00181157
991.638	0.00234293
991.799	0.00254937
991.96	0.00331957
992.121	0.00306744
992.283	0.00393651
992.444	0.00390845
992.605	0.00317527
992.766	0.00301342
992.927	0.00250961
993.088	0.00193314
993.249	0.00202166
993.41	0.0016215
993.572	0.00179473
993.733	0.00246003
993.894	0.00193185
994.055	0.00201982
994.216	0.00267024
994.376	0.00241526
994.537	0.00252972
994.698	0.00111038
994.859	0.00096909
995.02	0.00198858
995.181	0.00239969
995.342	0.00134327
995.503	0.00174461
995.663	0.00080664
995.824	0.00170794
995.985	0.0020463
996.146	0.00146185
996.306	0.0015203
996.467	0.00178458
996.628	0.00218312
996.788	0.00319043
996.949	0.00345839
997.11	0.00299379
997.27	0.00265847
997.431	0.0030291
997.591	0.00369088
997.752	0.00356174
997.912	0.00389212
998.073	0.00393672
998.233	0.00419583
998.394	0.00443037
998.554	0.00367592
998.714	0.00343564
998.875	0.00313764
999.035	0.00253701
999.196	0.00253451
999.356	0.00158407
999.516	0.0012893
999.676	0.00108311
999.837	0.00101398
999.997	0.00104763
1000.157	0.00091347
1000.317	0.00069007
1000.477	0.00207
1000.638	0.00287047
1000.798	0.00314
1000.958	0.0038793
1001.118	0.00434729
1001.278	0.00380321
1001.438	0.00392176
1001.598	0.00399159
1001.758	0.00287763
1001.918	0.00374961
1002.078	0.00302131
1002.238	0.00231288
1002.398	0.00322408
1002.558	0.00340776
1002.718	0.00299432
1002.878	0.0036075
1003.037	0.00294175
1003.197	0.00319926
1003.357	0.002505
1003.517	0.00238992
1003.677	0.00099685
1003.836	0.0010723
1003.996	0.00082111
1004.156	0.00066094
1004.315	0.00087888
1004.475	0.00247061
1004.635	0.00188972
1004.794	0.00363935
1004.954	0.00341751
1005.114	0.00282886
1005.273	0.00371594
1005.433	0.00344834
1005.592	0.00251989
1005.752	0.00276824
1005.911	0.0022694
1006.071	0.00244235
1006.23	0.0045691
1006.389	0.00426039
1006.549	0.00413202
1006.708	0.00461629
1006.868	0.00508889
1007.027	0.00530799
1007.186	0.00558136
1007.345	0.00504193
1007.505	0.00443412
1007.664	0.00547517
1007.823	0.00516217
1007.982	0.00490391
1008.142	0.00566844
1008.301	0.00451223
1008.46	0.00520728
1008.619	0.00523017
1008.778	0.00510303
1008.937	0.00505453
1009.096	0.0050128
1009.255	0.00376886
1009.414	0.00447523
1009.573	0.00260732
1009.732	0.00274371
1009.891	0.0017563
1010.05	0.00205791
1010.209	0.00292663
1010.368	0.00361232
1010.527	0.00271156
1010.686	0.00351599
1010.845	0.00369319
1011.003	0.00507095
1011.162	0.00410122
1011.321	0.00321171
1011.48	0.00177895
1011.638	0.00271121
1011.797	0.0033552
1011.956	0.00389951
1012.115	0.00210937
1012.273	0.00265867
1012.432	0.0024024
1012.59	0.00328574
1012.749	0.00365552
1012.908	0.00519307
1013.066	0.00488544
1013.225	0.00362353
1013.383	0.0048981
1013.542	0.00634242
1013.7	0.00613308
1013.859	0.00553737
1014.017	0.00415112
1014.175	0.00389036
1014.334	0.00765791
1014.492	0.00777537
1014.65	0.0094325
1014.809	0.01091023
1014.967	0.01090318
1015.125	0.00997862
1015.284	0.00914978
1015.442	0.00729177
1015.6	0.00493414
1015.758	0.00231684
1015.916	0.00203218
1016.075	0.00043713
1016.233	0.00223621
1016.391	0.0041236
1016.549	0.00549969
1016.707	0.00639879
1016.865	0.00758197
1017.023	0.00673927
1017.181	0.00919228
1017.339	0.00699499
1017.497	0.00518924
1017.655	0.00562128
1017.813	0.00640616
1017.971	0.00431965
1018.129	0.00615639
1018.286	0.00639075
1018.444	0.00970935
1018.602	0.01034002
1018.76	0.00816081
1018.918	0.00909951
1019.075	0.0078592
1019.233	0.00754999
1019.391	0.0065646
1019.549	0.00365199
1019.706	0.00488484
1019.864	0.00501718
1020.022	0.00333997
1020.179	0.00855649
1020.337	0.00713515
1020.494	0.0074521
1020.652	0.00894059
1020.809	0.00743465
1020.967	0.00742886
1021.124	0.00768648
1021.282	0.00727895
1021.439	0.00769216
1021.597	0.0101907
1021.754	0.00913895
1021.911	0.00900332
1022.069	0.0099561
1022.226	0.01335426
1022.384	0.00999074
1022.541	0.00777715
1022.698	0.00508479
1022.855	0.00243279
1023.013	0.00434021
1023.17	0.00261075
1023.327	0.00023084
1023.484	0.00140009
1023.641	0.00592871
1023.798	0.00762076
1023.956	0.01267392
1024.113	0.01296811
1024.27	0.01461379
1024.427	0.01575784
1024.584	0.01598558
1024.741	0.01334837
1024.898	0.01541276
1025.055	0.01333677
1025.212	0.01188919
1025.369	0.00978357
1025.525	0.01110654
1025.682	0.01299544
1025.839	0.01342365
1025.996	0.00997149
1026.153	0.00830083
1026.31	0.00934439
1026.466	0.01294027
1026.623	0.00958505
1026.78	0.00924757
1026.937	0.00842819
1027.093	0.00980405
1027.25	0.01534282
1027.407	0.01723166
1027.563	0.01399571
1027.72	0.01384738
1027.876	0.01083125
1028.033	0.00898094
1028.19	0.0074633
1028.346	0.00246915
1028.503	-0.00191198
1028.659	-0.00360833
1028.816	-0.00419673
1028.972	-0.00171243
1029.128	0.00238771
1029.285	0.00746602
1029.441	0.00964024
1029.598	0.01032903
1029.754	0.01594659
1029.91	0.02123815
1030.067	0.01617919
1030.223	0.02015625
1030.379	0.01263094
1030.535	0.0109657
1030.691	0.01716654
1030.848	0.01749953
1031.004	0.01276306
1031.16	0.01838363
1031.316	0.01585674
1031.472	0.01766582
1031.628	0.02435574
1031.784	0.02215048
1031.94	0.02707077
1032.096	0.02615477
1032.252	0.02510989
1032.408	0.02058048
1032.564	0.02320604
1032.72	0.01785346
1032.876	0.01736844
1033.032	0.01523242
1033.188	0.01143234
1033.344	0.00928105
1033.5	0.01001695
1033.655	0.01031263
1033.811	0.0124657
1033.967	0.00814782
