Data from 0_1_mm_pl_30pc_Absorbance__0__18-08-22-285.txt Node

Date: Wed Mar 01 18:08:22 CET 2023
User: Ange
Spectrometer: FLMT08341
Trigger mode: 0
Integration Time (sec): 1.000000E-2
Scans to average: 400
Electric dark correction enabled: true
Nonlinearity correction enabled: false
Boxcar width: 3
XAxis mode: Wavelengths
Number of Pixels in Spectrum: 3648
>>>>>Begin Spectral Data<<<<<
345.271	-0.02246678
345.487	-0.02688235
345.704	-0.02819729
345.921	-0.02614475
346.137	-0.02466944
346.354	-0.00536485
346.571	0.01428416
346.787	0.06645384
347.004	-0.15255129
347.22	-0.05093635
347.437	-0.0474276
347.653	-0.083482
347.87	-0.19296497
348.086	-0
348.303	-0
348.519	0.02776373
348.736	0.05069733
348.952	0.05210957
349.169	0.05360675
349.385	0.05593625
349.601	0.05628622
349.818	0.05710403
350.034	0.05745663
350.251	0.05890506
350.467	0.0596419
350.683	0.05829401
350.9	0.05938091
351.116	0.05889229
351.332	0.05992009
351.549	0.06217483
351.765	0.06079792
351.981	0.06107051
352.197	0.06395421
352.414	0.06387105
352.63	0.0663781
352.846	0.06605773
353.062	0.06227918
353.278	0.06244685
353.495	0.06506957
353.711	0.06408632
353.927	0.06631837
354.143	0.06419269
354.359	0.06377897
354.575	0.06620927
354.792	0.06685873
355.008	0.0645035
355.224	0.06438262
355.44	0.06439512
355.656	0.06591563
355.872	0.06796956
356.088	0.06954304
356.304	0.07103113
356.52	0.07349216
356.736	0.07577545
356.952	0.07496866
357.168	0.07579127
357.384	0.07685347
357.6	0.0752637
357.816	0.07558302
358.032	0.07515604
358.248	0.074606
358.464	0.074061
358.679	0.07354126
358.895	0.0717545
359.111	0.0725624
359.327	0.0715967
359.543	0.0714157
359.759	0.07293565
359.974	0.074175
360.19	0.07587169
360.406	0.07520948
360.622	0.07502563
360.838	0.07496855
361.053	0.07557697
361.269	0.07498904
361.485	0.07544666
361.701	0.0757249
361.916	0.07676588
362.132	0.07727534
362.348	0.07863885
362.563	0.07841449
362.779	0.07854804
362.995	0.07853347
363.21	0.0790243
363.426	0.08036945
363.641	0.08110612
363.857	0.08130829
364.073	0.08219461
364.288	0.08202276
364.504	0.08298692
364.719	0.08310498
364.935	0.08195153
365.15	0.08182152
365.366	0.08249935
365.581	0.08312264
365.797	0.08334962
366.012	0.08341197
366.228	0.08226312
366.443	0.08383564
366.658	0.0845814
366.874	0.0840233
367.089	0.08446951
367.305	0.08595057
367.52	0.0863531
367.735	0.08715423
367.951	0.08636984
368.166	0.08659286
368.381	0.08739651
368.597	0.08654975
368.812	0.0867501
369.027	0.08686656
369.243	0.08767345
369.458	0.08952313
369.673	0.09005654
369.888	0.08980675
370.104	0.09099212
370.319	0.09075106
370.534	0.09143323
370.749	0.09170422
370.964	0.09171948
371.179	0.09125219
371.395	0.09159166
371.61	0.09140849
371.825	0.09124821
372.04	0.09158849
372.255	0.091608
372.47	0.09159355
372.685	0.09133296
372.9	0.09176372
373.115	0.09253079
373.33	0.09316645
373.545	0.0932626
373.76	0.09393014
373.975	0.09325977
374.19	0.09395228
374.405	0.09423352
374.62	0.09495992
374.835	0.0956414
375.05	0.09602008
375.265	0.09576749
375.48	0.09743003
375.695	0.0987858
375.91	0.09871453
376.125	0.09875791
376.339	0.09844694
376.554	0.09853083
376.769	0.09819288
376.984	0.09841584
377.199	0.09850771
377.414	0.09845158
377.628	0.09854402
377.843	0.10009209
378.058	0.10129941
378.273	0.10222763
378.487	0.10227339
378.702	0.10273148
378.917	0.1035935
379.131	0.1038355
379.346	0.10220686
379.561	0.10105619
379.775	0.10100568
379.99	0.10090594
380.205	0.10037265
380.419	0.10031908
380.634	0.09982195
380.848	0.10194395
381.063	0.10238181
381.278	0.10400016
381.492	0.10437352
381.707	0.10545174
381.921	0.10586729
382.136	0.10698266
382.35	0.10571837
382.565	0.10539767
382.779	0.10509448
382.994	0.10523131
383.208	0.10503085
383.422	0.10575829
383.637	0.10572085
383.851	0.10697505
384.066	0.10868553
384.28	0.10885777
384.494	0.10885393
384.709	0.10874484
384.923	0.10883152
385.137	0.10882042
385.352	0.1089954
385.566	0.10854191
385.78	0.1089389
385.995	0.10940244
386.209	0.11003553
386.423	0.11053587
386.637	0.11079592
386.852	0.110389
387.066	0.11096558
387.28	0.11061727
387.494	0.11136817
387.708	0.11172133
387.923	0.11171424
388.137	0.11286093
388.351	0.11377293
388.565	0.11405415
388.779	0.11505994
388.993	0.11579399
389.207	0.11629937
389.421	0.11696763
389.635	0.11628826
389.85	0.1157633
390.064	0.11614198
390.278	0.11620717
390.492	0.11614638
390.706	0.11622956
390.92	0.11593368
391.134	0.1173163
391.348	0.11864575
391.561	0.11905917
391.775	0.11927386
391.989	0.11874403
392.203	0.1191082
392.417	0.11977122
392.631	0.12017768
392.845	0.11986493
393.059	0.12025809
393.273	0.12016337
393.486	0.12022127
393.7	0.12024336
393.914	0.1204922
394.128	0.12026686
394.342	0.12026531
394.555	0.12012654
394.769	0.12048333
394.983	0.12075893
395.197	0.12094201
395.41	0.12119736
395.624	0.12144677
395.838	0.12182512
396.051	0.12226545
396.265	0.12261645
396.479	0.12314755
396.692	0.12338494
396.906	0.12368157
397.12	0.1240317
397.333	0.1245842
397.547	0.12435226
397.76	0.12426999
397.974	0.12443056
398.187	0.12475939
398.401	0.1247562
398.614	0.12449505
398.828	0.124077
399.041	0.12455821
399.255	0.12479091
399.468	0.12498051
399.682	0.12522679
399.895	0.12563155
400.109	0.1257102
400.322	0.12587137
400.536	0.12557403
400.749	0.12585096
400.962	0.12586438
401.176	0.12555689
401.389	0.12535523
401.602	0.12487792
401.816	0.12517704
402.029	0.12542328
402.242	0.1256151
402.456	0.12569011
402.669	0.12578415
402.882	0.12532748
403.095	0.12605359
403.309	0.12624992
403.522	0.12617124
403.735	0.12583148
403.948	0.1259887
404.161	0.12639008
404.375	0.12699423
404.588	0.12692518
404.801	0.12685191
405.014	0.12670187
405.227	0.127024
405.44	0.12743951
405.653	0.12751494
405.866	0.12715081
406.079	0.12714674
406.293	0.12688033
406.506	0.12711498
406.719	0.12684673
406.932	0.12673537
407.145	0.12635831
407.358	0.12678767
407.571	0.12664746
407.784	0.12654492
407.996	0.12672019
408.209	0.12665357
408.422	0.12602543
408.635	0.12628162
408.848	0.12622523
409.061	0.12592823
409.274	0.12626573
409.487	0.1259873
409.7	0.12610692
409.912	0.12640336
410.125	0.12632311
410.338	0.12644434
410.551	0.12645396
410.764	0.1260398
410.976	0.12617695
411.189	0.12593797
411.402	0.12570824
411.615	0.12563751
411.827	0.1251679
412.04	0.12510699
412.253	0.12526594
412.465	0.12479049
412.678	0.12485244
412.891	0.12514989
413.103	0.12453589
413.316	0.12447613
413.529	0.12445352
413.741	0.1249313
413.954	0.12506211
414.166	0.12490443
414.379	0.1243475
414.591	0.12447355
414.804	0.12408615
415.016	0.12397249
415.229	0.12312534
415.441	0.12271525
415.654	0.12274265
415.866	0.12269717
416.079	0.12264347
416.291	0.12250184
416.504	0.12220381
416.716	0.12209172
416.928	0.12184855
417.141	0.12129893
417.353	0.12113702
417.566	0.12066331
417.778	0.12034522
417.99	0.11988888
418.203	0.11962258
418.415	0.11968243
418.627	0.11954332
418.839	0.11926925
419.052	0.11950773
419.264	0.11921438
419.476	0.11937879
419.688	0.11939867
419.901	0.11909525
420.113	0.11886535
420.325	0.11849422
420.537	0.1178188
420.749	0.11795408
420.961	0.11761387
421.174	0.11708949
421.386	0.11671082
421.598	0.11638475
421.81	0.11599724
422.022	0.11563271
422.234	0.11524301
422.446	0.11469026
422.658	0.1143494
422.87	0.11394933
423.082	0.1135516
423.294	0.1131083
423.506	0.11302092
423.718	0.11252344
423.93	0.11237659
424.142	0.11196537
424.354	0.1115097
424.566	0.11121124
424.778	0.11122969
424.99	0.11092454
425.202	0.11067236
425.414	0.11045592
425.625	0.11008134
425.837	0.10987164
426.049	0.10963541
426.261	0.10926613
426.473	0.10850941
426.684	0.10830051
426.896	0.10791574
427.108	0.10743662
427.32	0.1070609
427.531	0.10648107
427.743	0.10595377
427.955	0.10601133
428.167	0.1053546
428.378	0.1048863
428.59	0.10456233
428.802	0.10405383
429.013	0.10359206
429.225	0.10309986
429.436	0.10243711
429.648	0.10213765
429.86	0.10168001
430.071	0.10144264
430.283	0.10111637
430.494	0.10081076
430.706	0.10032651
430.917	0.10001567
431.129	0.09960821
431.34	0.09902574
431.552	0.09863548
431.763	0.0982413
431.975	0.0979495
432.186	0.09775715
432.398	0.09731495
432.609	0.0967204
432.821	0.09649967
433.032	0.09587603
433.243	0.09536777
433.455	0.09475478
433.666	0.09422586
433.877	0.09394362
434.089	0.09359115
434.3	0.09328844
434.511	0.09302815
434.723	0.09263708
434.934	0.09234973
435.145	0.0919181
435.356	0.09134135
435.568	0.09104116
435.779	0.09048786
435.99	0.08996611
436.201	0.08953232
436.412	0.08911774
436.624	0.08869679
436.835	0.08827056
437.046	0.08787382
437.257	0.08739434
437.468	0.0870634
437.679	0.08681138
437.89	0.08636998
438.101	0.08593642
438.312	0.08560961
438.523	0.08512405
438.734	0.08471795
438.945	0.08421565
439.156	0.0835783
439.367	0.083132
439.578	0.08270537
439.789	0.0820525
440	0.08169032
440.211	0.08108956
440.422	0.08055663
440.633	0.08013676
440.844	0.07959071
441.055	0.07909678
441.266	0.07869383
441.477	0.07794613
441.687	0.07746262
441.898	0.0767473
442.109	0.07612087
442.32	0.07564378
442.531	0.07504066
442.741	0.07432692
442.952	0.07395524
443.163	0.07357896
443.374	0.07319776
443.584	0.07272907
443.795	0.07210746
444.006	0.07164695
444.216	0.07127402
444.427	0.0706536
444.638	0.07005254
444.848	0.06958742
445.059	0.06911594
445.27	0.06863718
445.48	0.06814582
445.691	0.06772108
445.901	0.06728866
446.112	0.06663739
446.323	0.066262
446.533	0.06575468
446.744	0.06532709
446.954	0.06482407
447.165	0.06428083
447.375	0.06398674
447.586	0.06381437
447.796	0.06322603
448.006	0.06280328
448.217	0.06240222
448.427	0.06203803
448.638	0.06157455
448.848	0.06086102
449.058	0.0603295
449.269	0.05992346
449.479	0.05949924
449.689	0.05901202
449.9	0.05862834
450.11	0.05819913
450.32	0.05792235
450.531	0.05752995
450.741	0.0570848
450.951	0.05672886
451.161	0.05620438
451.372	0.05555837
451.582	0.05518726
451.792	0.05464169
452.002	0.05427269
452.212	0.05380663
452.422	0.05322202
452.633	0.05286652
452.843	0.05256382
453.053	0.0520551
453.263	0.05167796
453.473	0.05114412
453.683	0.05075503
453.893	0.05039267
454.103	0.04997788
454.313	0.04956187
454.523	0.04926015
454.733	0.04895173
454.943	0.04858586
455.153	0.04828868
455.363	0.04797407
455.573	0.04759651
455.783	0.04732187
455.993	0.04684237
456.203	0.04639866
456.413	0.04590345
456.623	0.04554515
456.833	0.04521498
457.042	0.04487287
457.252	0.0444001
457.462	0.0440589
457.672	0.04360115
457.882	0.04338228
458.091	0.04295793
458.301	0.04248541
458.511	0.04205639
458.721	0.04171771
458.931	0.04137605
459.14	0.04112758
459.35	0.04082689
459.56	0.04045651
459.769	0.04012688
459.979	0.03983894
460.189	0.03959189
460.398	0.0392555
460.608	0.0389974
460.817	0.03857162
461.027	0.03839109
461.237	0.03812093
461.446	0.0377399
461.656	0.03742583
461.865	0.03713051
462.075	0.03682689
462.284	0.03663625
462.494	0.03633467
462.703	0.03594087
462.913	0.03578136
463.122	0.03539011
463.332	0.03510283
463.541	0.03485871
463.751	0.03447763
463.96	0.03417711
464.169	0.03400951
464.379	0.03379441
464.588	0.03362117
464.797	0.03337758
465.007	0.03306755
465.216	0.03286833
465.425	0.03258619
465.635	0.03225693
465.844	0.03195223
466.053	0.03158052
466.263	0.03137246
466.472	0.03124529
466.681	0.03099338
466.89	0.03074157
467.099	0.03062417
467.309	0.03036534
467.518	0.03019783
467.727	0.02993994
467.936	0.02956704
468.145	0.02942884
468.354	0.02926762
468.563	0.02898245
468.772	0.02877787
468.982	0.02864481
469.191	0.02842881
469.4	0.02823897
469.609	0.02813124
469.818	0.02788379
470.027	0.02775085
470.236	0.02748532
470.445	0.02726614
470.654	0.02713372
470.863	0.0269664
471.072	0.02666783
471.28	0.02644981
471.489	0.02611894
471.698	0.02598108
471.907	0.02577662
472.116	0.0255677
472.325	0.02536603
472.534	0.02515992
472.743	0.0250572
472.951	0.02489432
473.16	0.02480682
473.369	0.02464592
473.578	0.024551
473.786	0.02441057
473.995	0.02427324
474.204	0.02415537
474.413	0.02413691
474.621	0.02393892
474.83	0.02387534
475.039	0.02365561
475.247	0.02357237
475.456	0.02339857
475.665	0.0232865
475.873	0.02307511
476.082	0.02296733
476.291	0.02282289
476.499	0.02267818
476.708	0.02248279
476.916	0.02238733
477.125	0.022219
477.333	0.02217355
477.542	0.02199803
477.75	0.02185825
477.959	0.02176692
478.167	0.02171095
478.376	0.02157931
478.584	0.02152163
478.793	0.02146427
479.001	0.02140766
479.209	0.02134744
479.418	0.02130797
479.626	0.02113757
479.834	0.02100809
480.043	0.02089098
480.251	0.02072534
480.459	0.02061436
480.668	0.02053227
480.876	0.02043509
481.084	0.02042627
481.293	0.0204009
481.501	0.02036503
481.709	0.0203146
481.917	0.02020713
482.125	0.02015212
482.334	0.02007213
482.542	0.02005963
482.75	0.02007736
482.958	0.01997001
483.166	0.01993429
483.374	0.01992055
483.583	0.01984441
483.791	0.01985148
483.999	0.01979969
484.207	0.01971042
484.415	0.01963843
484.623	0.01960579
484.831	0.01952689
485.039	0.01953687
485.247	0.01946195
485.455	0.01935471
485.663	0.01925312
485.871	0.01924526
486.079	0.01912105
486.287	0.01915857
486.495	0.01908097
486.702	0.01902846
486.91	0.01898616
487.118	0.01905603
487.326	0.01893477
487.534	0.01894174
487.742	0.01899005
487.95	0.01893546
488.157	0.01895288
488.365	0.01897447
488.573	0.01890834
488.781	0.01902901
488.988	0.01902282
489.196	0.01890408
489.404	0.01890615
489.612	0.01883611
489.819	0.01887697
490.027	0.01887052
490.235	0.01883115
490.442	0.01885161
490.65	0.01887954
490.857	0.01887714
491.065	0.01888021
491.273	0.01885502
491.48	0.01888661
491.688	0.01885988
491.895	0.01885133
492.103	0.01892107
492.31	0.01893217
492.518	0.01901019
492.725	0.01902348
492.933	0.01901972
493.14	0.01904076
493.348	0.0190219
493.555	0.01901338
493.763	0.01898268
493.97	0.0189508
494.177	0.01894793
494.385	0.01897021
494.592	0.01903436
494.8	0.01908239
495.007	0.01904313
495.214	0.01917686
495.422	0.01921553
495.629	0.01929586
495.836	0.01931265
496.043	0.01929973
496.251	0.01940143
496.458	0.0194275
496.665	0.01941337
496.872	0.01945625
497.08	0.01940185
497.287	0.01947541
497.494	0.01958503
497.701	0.01955398
497.908	0.01965369
498.115	0.01974376
498.322	0.01981693
498.53	0.01992018
498.737	0.01994169
498.944	0.01995167
499.151	0.01999453
499.358	0.02007709
499.565	0.02010884
499.772	0.02013183
499.979	0.0201837
500.186	0.02027636
500.393	0.02033671
500.6	0.02045244
500.807	0.02050125
501.014	0.02055776
501.221	0.02067045
501.427	0.02072957
501.634	0.02081871
501.841	0.02091122
502.048	0.02096568
502.255	0.02098434
502.462	0.0210918
502.669	0.02113699
502.875	0.0212501
503.082	0.02124193
503.289	0.02131427
503.496	0.0213557
503.702	0.02144428
503.909	0.02142869
504.116	0.02150368
504.323	0.02153131
504.529	0.02161248
504.736	0.02160742
504.943	0.02164243
505.149	0.02169199
505.356	0.02176112
505.563	0.02188213
505.769	0.02195724
505.976	0.02200085
506.182	0.02215167
506.389	0.0222473
506.595	0.02235353
506.802	0.02248261
507.008	0.022492
507.215	0.02259295
507.421	0.02273075
507.628	0.02279799
507.834	0.02297608
508.041	0.0230486
508.247	0.02315284
508.454	0.02328427
508.66	0.02335154
508.866	0.0234283
509.073	0.02349395
509.279	0.02354747
509.486	0.02364971
509.692	0.0237228
509.898	0.0238384
510.105	0.02395615
510.311	0.0240649
510.517	0.02417632
510.723	0.02422007
510.93	0.02432063
511.136	0.02444149
511.342	0.02451919
511.548	0.02456062
511.754	0.02465517
511.961	0.02480196
512.167	0.02492662
512.373	0.02503868
512.579	0.02517022
512.785	0.02531152
512.991	0.02548362
513.197	0.02563831
513.404	0.02571412
513.61	0.02586387
513.816	0.02599181
514.022	0.02606914
514.228	0.02616646
514.434	0.02626432
514.64	0.02634525
514.846	0.02644876
515.052	0.02656987
515.258	0.02663268
515.464	0.02671737
515.669	0.02678755
515.875	0.0268944
516.081	0.02699404
516.287	0.02713043
516.493	0.02727388
516.699	0.02740915
516.905	0.02754044
517.111	0.02767858
517.316	0.02778947
517.522	0.02796232
517.728	0.02811881
517.934	0.02821985
518.139	0.02832887
518.345	0.0284248
518.551	0.02857049
518.757	0.0286748
518.962	0.02877456
519.168	0.02885691
519.374	0.02895644
519.579	0.02913402
519.785	0.02934475
519.991	0.02945092
520.196	0.02966586
520.402	0.02980725
520.607	0.02995792
520.813	0.03011839
521.018	0.03027993
521.224	0.03038878
521.429	0.03056554
521.635	0.03065327
521.84	0.03078648
522.046	0.03094666
522.251	0.03109705
522.457	0.0312273
522.662	0.03135054
522.868	0.03151339
523.073	0.03169648
523.279	0.03185602
523.484	0.03196952
523.689	0.03211247
523.895	0.03226854
524.1	0.032433
524.305	0.03257878
524.511	0.03271356
524.716	0.0328765
524.921	0.0330251
525.126	0.03320738
525.332	0.03335909
525.537	0.03355006
525.742	0.03368122
525.947	0.0338385
526.153	0.03398334
526.358	0.0341873
526.563	0.0343456
526.768	0.03446626
526.973	0.03459302
527.178	0.03475164
527.383	0.03495032
527.588	0.0351355
527.794	0.03530519
527.999	0.03542774
528.204	0.03564471
528.409	0.0357773
528.614	0.03595902
528.819	0.0360647
529.024	0.03621476
529.229	0.03638029
529.434	0.03655286
529.639	0.03668552
529.843	0.03687134
530.048	0.03700059
530.253	0.03717804
530.458	0.03733998
530.663	0.03747918
530.868	0.03769925
531.073	0.03793124
531.278	0.03815726
531.482	0.0383482
531.687	0.03853061
531.892	0.03869833
532.097	0.03889859
532.302	0.03905507
532.506	0.03921215
532.711	0.03933924
532.916	0.03950387
533.12	0.03967276
533.325	0.03985033
533.53	0.04002803
533.734	0.04021545
533.939	0.04037526
534.144	0.04056963
534.348	0.04074393
534.553	0.04092945
534.757	0.04110361
534.962	0.04128681
535.167	0.04144618
535.371	0.0416399
535.576	0.04183051
535.78	0.04203427
535.985	0.04220982
536.189	0.04243941
536.394	0.04263604
536.598	0.04282815
536.803	0.04301143
537.007	0.04324973
537.211	0.04348144
537.416	0.04373227
537.62	0.04393111
537.825	0.04413428
538.029	0.04439034
538.233	0.04458496
538.438	0.04473923
538.642	0.04490154
538.846	0.04505988
539.05	0.04518241
539.255	0.04534976
539.459	0.04550345
539.663	0.04570782
539.867	0.04590873
540.072	0.0461308
540.276	0.04637724
540.48	0.04663761
540.684	0.04683049
540.888	0.04703874
541.092	0.04723579
541.297	0.04741631
541.501	0.04759669
541.705	0.04779196
541.909	0.04799702
542.113	0.04820795
542.317	0.04842208
542.521	0.04863907
542.725	0.04889311
542.929	0.04913416
543.133	0.04933684
543.337	0.04954447
543.541	0.04977377
543.745	0.05000403
543.949	0.05021896
544.153	0.05040634
544.357	0.0506219
544.56	0.05083421
544.764	0.05105209
544.968	0.05127091
545.172	0.05147041
545.376	0.0516579
545.58	0.05182698
545.783	0.05202523
545.987	0.0522612
546.191	0.05252682
546.395	0.05273856
546.598	0.05292883
546.802	0.05319619
547.006	0.05346079
547.21	0.05369808
547.413	0.05389866
547.617	0.05406149
547.821	0.05427686
548.024	0.05448994
548.228	0.05464842
548.431	0.05490832
548.635	0.05511251
548.839	0.05533915
549.042	0.05557607
549.246	0.05578963
549.449	0.05600855
549.653	0.05624536
549.856	0.05650124
550.06	0.05669868
550.263	0.0569148
550.467	0.05712029
550.67	0.05739056
550.874	0.05763018
551.077	0.05789279
551.28	0.05806411
551.484	0.0583398
551.687	0.05856631
551.891	0.05885387
552.094	0.05904146
552.297	0.05931905
552.501	0.05954665
552.704	0.05976795
552.907	0.05995142
553.11	0.06019132
553.314	0.06038489
553.517	0.06059822
553.72	0.06077119
553.923	0.06100623
554.127	0.06124921
554.33	0.06148526
554.533	0.06173559
554.736	0.06195712
554.939	0.06220197
555.142	0.06245082
555.345	0.06262548
555.549	0.0628297
555.752	0.06306321
555.955	0.06325967
556.158	0.06350232
556.361	0.06376281
556.564	0.06398134
556.767	0.06428931
556.97	0.06455135
557.173	0.06476728
557.376	0.06503682
557.579	0.06524968
557.782	0.06548226
557.984	0.06576524
558.187	0.06601002
558.39	0.06628463
558.593	0.06656854
558.796	0.06679239
558.999	0.06703058
559.202	0.06730748
559.404	0.06751716
559.607	0.06770344
559.81	0.06793917
560.013	0.06817896
560.216	0.06843632
560.418	0.06867901
560.621	0.06886694
560.824	0.06908879
561.026	0.06938377
561.229	0.06960554
561.432	0.06980741
561.634	0.06997765
561.837	0.07023457
562.04	0.07050919
562.242	0.07074788
562.445	0.07092439
562.647	0.07113389
562.85	0.07135961
563.053	0.07165123
563.255	0.07192185
563.458	0.07213609
563.66	0.07238946
563.863	0.07265844
564.065	0.0729163
564.268	0.07318112
564.47	0.07346137
564.672	0.0736753
564.875	0.07389881
565.077	0.07411281
565.28	0.07433965
565.482	0.07457099
565.684	0.07483842
565.887	0.07504691
566.089	0.07529363
566.291	0.07553314
566.494	0.07578682
566.696	0.07607778
566.898	0.07632527
567.1	0.07656693
567.303	0.07680417
567.505	0.07703844
567.707	0.07732661
567.909	0.07758625
568.111	0.07780488
568.314	0.07809534
568.516	0.07831053
568.718	0.07854968
568.92	0.07882166
569.122	0.07901929
569.324	0.07928443
569.526	0.07950341
569.728	0.07972833
569.93	0.07998257
570.132	0.0802596
570.334	0.08047531
570.536	0.08069027
570.738	0.08093098
570.94	0.08119455
571.142	0.08143598
571.344	0.08165346
571.546	0.08185798
571.748	0.08210737
571.95	0.08232459
572.152	0.08252869
572.354	0.08278717
572.555	0.08300257
572.757	0.08328627
572.959	0.08351009
573.161	0.08372338
573.363	0.08399153
573.564	0.08427143
573.766	0.08443048
573.968	0.08466398
574.17	0.08484831
574.371	0.08504602
574.573	0.08530162
574.775	0.08554541
574.976	0.08574704
575.178	0.0859736
575.38	0.08619912
575.581	0.08644034
575.783	0.08669655
575.985	0.0869287
576.186	0.08714623
576.388	0.08738903
576.589	0.08763387
576.791	0.08787487
576.992	0.08811757
577.194	0.08838499
577.395	0.08859461
577.597	0.08881305
577.798	0.08903874
578	0.08926787
578.201	0.08952957
578.402	0.08973247
578.604	0.0899284
578.805	0.09015659
579.007	0.09041047
579.208	0.09062566
579.409	0.09082573
579.611	0.09100832
579.812	0.09118948
580.013	0.09145991
580.215	0.09167719
580.416	0.09192981
580.617	0.09214689
580.818	0.09240987
581.019	0.0926499
581.221	0.09293476
581.422	0.09314333
581.623	0.09337478
581.824	0.09353159
582.025	0.0937494
582.226	0.09392528
582.428	0.09416157
582.629	0.09437278
582.83	0.09457886
583.031	0.09479366
583.232	0.09504378
583.433	0.09531624
583.634	0.09554958
583.835	0.09575097
584.036	0.0959415
584.237	0.09606932
584.438	0.09624051
584.639	0.09641303
584.84	0.09657693
585.041	0.09679372
585.242	0.09699838
585.442	0.09726604
585.643	0.09755304
585.844	0.097794
586.045	0.09803397
586.246	0.09820415
586.447	0.09840711
586.647	0.09858832
586.848	0.09870421
587.049	0.09891499
587.25	0.09907483
587.45	0.09927255
587.651	0.0994751
587.852	0.09965931
588.053	0.09989905
588.253	0.10012258
588.454	0.10029546
588.655	0.10046931
588.855	0.10067266
589.056	0.10090506
589.256	0.10113314
589.457	0.10130414
589.658	0.10153665
589.858	0.10169625
590.059	0.101954
590.259	0.10213393
590.46	0.10233005
590.66	0.10251496
590.861	0.10267019
591.061	0.10282941
591.262	0.10304266
591.462	0.10324912
591.662	0.1034318
591.863	0.10357922
592.063	0.10372868
592.264	0.10392343
592.464	0.1041179
592.664	0.10430265
592.865	0.10450207
593.065	0.10463655
593.265	0.10484267
593.465	0.10505237
593.666	0.10521238
593.866	0.1053634
594.066	0.10553984
594.266	0.10566037
594.467	0.10583701
594.667	0.10597333
594.867	0.10613861
595.067	0.10630584
595.267	0.10651674
595.467	0.10669217
595.668	0.10686287
595.868	0.10706738
596.068	0.10725346
596.268	0.10740262
596.468	0.10761292
596.668	0.107736
596.868	0.10786657
597.068	0.10800494
597.268	0.10817303
597.468	0.10833897
597.668	0.10850608
597.868	0.10860536
598.068	0.10876916
598.268	0.10896895
598.467	0.10920885
598.667	0.10930238
598.867	0.10938822
599.067	0.10951525
599.267	0.10968484
599.467	0.10982112
599.667	0.10993507
599.866	0.10997699
600.066	0.11011711
600.266	0.1102564
600.466	0.11037564
600.665	0.1104818
600.865	0.11057892
601.065	0.11073761
601.264	0.11087381
601.464	0.11099797
601.664	0.1111823
601.863	0.11132684
602.063	0.11148318
602.263	0.11157118
602.462	0.11164226
602.662	0.11174434
602.861	0.11190193
603.061	0.1119929
603.26	0.11208623
603.46	0.11215621
603.659	0.11234154
603.859	0.11244013
604.058	0.11255522
604.258	0.11266845
604.457	0.11284917
604.657	0.11295211
604.856	0.11307827
605.056	0.11318778
605.255	0.11326176
605.454	0.11340762
605.654	0.11343394
605.853	0.11344259
606.052	0.11353568
606.252	0.11363259
606.451	0.11374631
606.65	0.11391047
606.849	0.11394351
607.049	0.11412438
607.248	0.11425544
607.447	0.11438383
607.646	0.11446715
607.845	0.11454459
608.045	0.11456946
608.244	0.11473049
608.443	0.11480978
608.642	0.11494854
608.841	0.11499903
609.04	0.11506311
609.239	0.11515261
609.438	0.11520369
609.637	0.11527774
609.836	0.1153034
610.035	0.1152996
610.234	0.11543855
610.433	0.11558471
610.632	0.11563065
610.831	0.11579212
611.03	0.11583261
611.229	0.11598911
611.428	0.11609405
611.627	0.11615017
611.826	0.11622073
612.025	0.1163713
612.224	0.11644841
612.422	0.11654346
612.621	0.11662925
612.82	0.11674423
613.019	0.11682979
613.218	0.11688233
613.416	0.11689131
613.615	0.11698619
613.814	0.11707135
614.012	0.11705809
614.211	0.11703955
614.41	0.11710864
614.608	0.11714195
614.807	0.11719933
615.006	0.11727455
615.204	0.11732296
615.403	0.11744176
615.602	0.11755676
615.8	0.11765583
615.999	0.11770399
616.197	0.1177468
616.396	0.11777599
616.594	0.11777142
616.793	0.11782767
616.991	0.11782172
617.19	0.11774186
617.388	0.117842
617.586	0.11792753
617.785	0.11795406
617.983	0.11805539
618.182	0.11806562
618.38	0.11810396
618.578	0.1182049
618.777	0.11820982
618.975	0.11821455
619.173	0.11823918
619.372	0.1182343
619.57	0.11821801
619.768	0.1182669
619.966	0.11830474
620.165	0.11828494
620.363	0.11834042
620.561	0.11834151
620.759	0.11837064
620.957	0.11843816
621.155	0.11848714
621.354	0.11848019
621.552	0.11858062
621.75	0.11855258
621.948	0.11859852
622.146	0.11866202
622.344	0.11867944
622.542	0.11873761
622.74	0.11879866
622.938	0.11878396
623.136	0.11884554
623.334	0.11887554
623.532	0.11880628
623.73	0.11883714
623.928	0.11885169
624.126	0.11882407
624.324	0.11887221
624.522	0.11882747
624.719	0.11881158
624.917	0.11888822
625.115	0.11885313
625.313	0.11884873
625.511	0.11894693
625.708	0.11888229
625.906	0.11890582
626.104	0.11892328
626.302	0.11895438
626.499	0.11899069
626.697	0.11898011
626.895	0.1188877
627.093	0.11892838
627.29	0.11896695
627.488	0.11897274
627.686	0.11895078
627.883	0.11889043
628.081	0.11879495
628.278	0.11887106
628.476	0.11882582
628.673	0.11880601
628.871	0.11877538
629.068	0.11873176
629.266	0.11881106
629.463	0.11879908
629.661	0.11875375
629.858	0.11876381
630.056	0.11873068
630.253	0.11876026
630.451	0.11876305
630.648	0.11869922
630.845	0.11874809
631.043	0.1187159
631.24	0.11873542
631.438	0.11875439
631.635	0.11871866
631.832	0.11869958
632.029	0.11870029
632.227	0.11866336
632.424	0.11863651
632.621	0.11859278
632.818	0.11852595
633.016	0.11855731
633.213	0.11847647
633.41	0.11848231
633.607	0.11845014
633.804	0.1183861
634.001	0.11829796
634.199	0.11831918
634.396	0.1182083
634.593	0.1181859
634.79	0.11810805
634.987	0.11809705
635.184	0.11811372
635.381	0.11815687
635.578	0.11815408
635.775	0.11813125
635.972	0.11813432
636.169	0.11811277
636.366	0.11801142
636.563	0.11794879
636.76	0.11783647
636.957	0.1177667
637.153	0.11767075
637.35	0.11765273
637.547	0.11758313
637.744	0.11759064
637.941	0.11755648
638.138	0.1175487
638.334	0.11745577
638.531	0.11746051
638.728	0.11740839
638.925	0.1174086
639.121	0.11737801
639.318	0.11732227
639.515	0.11725544
639.711	0.11726693
639.908	0.11720131
640.105	0.11708009
640.301	0.11698442
640.498	0.11690949
640.695	0.11690082
640.891	0.11686529
641.088	0.11674261
641.284	0.1167004
641.481	0.11668171
641.677	0.11666001
641.874	0.11658421
642.07	0.116544
642.267	0.11653625
642.463	0.11650597
642.66	0.1164936
642.856	0.11642182
643.053	0.11631322
643.249	0.11626324
643.445	0.11615593
643.642	0.11607605
643.838	0.11599875
644.034	0.11587917
644.231	0.11580931
644.427	0.11576953
644.623	0.11571834
644.82	0.11567078
645.016	0.11558844
645.212	0.11549096
645.408	0.11543626
645.604	0.11543364
645.801	0.11536062
645.997	0.11526979
646.193	0.11513595
646.389	0.11509667
646.585	0.11503448
646.781	0.11499364
646.977	0.11488765
647.173	0.11488071
647.37	0.11481114
647.566	0.11476445
647.762	0.11463783
647.958	0.114619
648.154	0.11451243
648.35	0.11441558
648.546	0.11428651
648.742	0.11426199
648.937	0.11416711
649.133	0.11411284
649.329	0.11409301
649.525	0.11405799
649.721	0.11400324
649.917	0.11398646
650.113	0.11384295
650.309	0.11387095
650.504	0.11380305
650.7	0.11367307
650.896	0.11360014
651.092	0.11352598
651.287	0.11338455
651.483	0.11338832
651.679	0.11324461
651.875	0.11318622
652.07	0.11308715
652.266	0.11302245
652.462	0.11297186
652.657	0.11291607
652.853	0.11278648
653.048	0.11273531
653.244	0.11259918
653.44	0.1125528
653.635	0.11238305
653.831	0.1123031
654.026	0.1121924
654.222	0.11209073
654.417	0.11200716
654.613	0.11193065
654.808	0.11179438
655.004	0.11172469
655.199	0.11164774
655.394	0.11157543
655.59	0.11156973
655.785	0.1114521
655.98	0.11141134
656.176	0.11138461
656.371	0.11141111
656.566	0.11134783
656.762	0.11124957
656.957	0.11114163
657.152	0.111068
657.348	0.11100687
657.543	0.11085952
657.738	0.11074077
657.933	0.11060561
658.128	0.110513
658.324	0.11036996
658.519	0.11025443
658.714	0.11009357
658.909	0.11000769
659.104	0.10989182
659.299	0.10978374
659.494	0.10964528
659.689	0.10954837
659.884	0.10948409
660.079	0.10940075
660.274	0.10936305
660.469	0.10924692
660.664	0.10922386
660.859	0.10923916
661.054	0.10920318
661.249	0.10917762
661.444	0.10910897
661.639	0.10901521
661.834	0.10896285
662.029	0.10883239
662.224	0.10872471
662.418	0.108676
662.613	0.10850612
662.808	0.10842392
663.003	0.10833744
663.198	0.10822855
663.392	0.10818323
663.587	0.10819685
663.782	0.10802791
663.977	0.10797457
664.171	0.10790908
664.366	0.10780145
664.561	0.10775018
664.755	0.10762117
664.95	0.10743714
665.144	0.10740016
665.339	0.10731955
665.534	0.10722833
665.728	0.10713574
665.923	0.10704668
666.117	0.10699652
666.312	0.10693009
666.506	0.10687379
666.701	0.10675911
666.895	0.10664424
667.09	0.10658764
667.284	0.10649512
667.479	0.10637873
667.673	0.10626391
667.867	0.10617082
668.062	0.10609532
668.256	0.10606188
668.45	0.10598427
668.645	0.10587587
668.839	0.10583724
669.033	0.10576368
669.228	0.10565352
669.422	0.1056121
669.616	0.1054717
669.81	0.10538813
670.004	0.10526125
670.199	0.10514725
670.393	0.10503458
670.587	0.10493817
670.781	0.10481747
670.975	0.10477554
671.169	0.10466089
671.363	0.10460481
671.558	0.10450834
671.752	0.10444038
671.946	0.1043862
672.14	0.10430087
672.334	0.10417255
672.528	0.10419919
672.722	0.10412945
672.916	0.10404638
673.11	0.10393157
673.304	0.10389131
673.497	0.1037499
673.691	0.10371874
673.885	0.10350638
674.079	0.10346176
674.273	0.10336263
674.467	0.10335809
674.661	0.10328059
674.854	0.1032998
675.048	0.10322863
675.242	0.10317883
675.436	0.10309264
675.629	0.10306337
675.823	0.1029106
676.017	0.10279173
676.211	0.10265967
676.404	0.10256609
676.598	0.10253506
676.792	0.10246037
676.985	0.1023795
677.179	0.10232202
677.372	0.10227116
677.566	0.10226584
677.76	0.1022023
677.953	0.10214996
678.147	0.10209819
678.34	0.10209402
678.534	0.10208561
678.727	0.10207095
678.921	0.10203123
679.114	0.10196623
679.307	0.10187436
679.501	0.10181688
679.694	0.10172854
679.888	0.10162022
680.081	0.10148224
680.274	0.10134191
680.468	0.10129719
680.661	0.10123612
680.854	0.10124702
681.048	0.10119755
681.241	0.10116497
681.434	0.10109133
681.627	0.10105831
681.821	0.10100223
682.014	0.10095423
682.207	0.10076064
682.4	0.10068313
682.593	0.10063658
682.786	0.10057457
682.98	0.10049776
683.173	0.10043975
683.366	0.10035438
683.559	0.10030025
683.752	0.10020407
683.945	0.10011916
684.138	0.10011953
684.331	0.10006234
684.524	0.09998649
684.717	0.09991212
684.91	0.09989836
685.103	0.09979703
685.296	0.09970175
685.489	0.09957576
685.682	0.09948315
685.874	0.0994178
686.067	0.09938231
686.26	0.09930997
686.453	0.09929347
686.646	0.09927311
686.839	0.0992485
687.031	0.09922227
687.224	0.09911302
687.417	0.0990956
687.61	0.09900304
687.802	0.09891859
687.995	0.09887606
688.188	0.09881195
688.38	0.0987382
688.573	0.09874893
688.766	0.0986453
688.958	0.0986114
689.151	0.09852485
689.343	0.09850391
689.536	0.09850327
689.729	0.09847958
689.921	0.09843547
690.114	0.09839196
690.306	0.09835264
690.499	0.09839782
690.691	0.09834974
690.884	0.09827429
691.076	0.09824707
691.268	0.09818018
691.461	0.0981032
691.653	0.09809354
691.846	0.09805441
692.038	0.09795729
692.23	0.09791937
692.423	0.09786409
692.615	0.09785547
692.807	0.09785018
692.999	0.09780516
693.192	0.09770846
693.384	0.09769416
693.576	0.09758068
693.768	0.09755741
693.961	0.09741973
694.153	0.09733897
694.345	0.09725152
694.537	0.09725641
694.729	0.09718684
694.921	0.09717724
695.113	0.09714263
695.305	0.09715946
695.498	0.09711053
695.69	0.09709284
695.882	0.09700745
696.074	0.09701701
696.266	0.09697698
696.458	0.09690127
696.65	0.09685652
696.842	0.09685359
697.033	0.09682786
697.225	0.09680356
697.417	0.09675805
697.609	0.0967682
697.801	0.09677952
697.993	0.09678076
698.185	0.09679206
698.376	0.09678726
698.568	0.09674907
698.76	0.0967398
698.952	0.09668383
699.144	0.09660045
699.335	0.09655863
699.527	0.09649305
699.719	0.09643584
699.91	0.09644434
700.102	0.09635198
700.294	0.09634408
700.485	0.09634663
700.677	0.0963386
700.869	0.09634729
701.06	0.09636766
701.252	0.0963422
701.443	0.0963722
701.635	0.09634329
701.826	0.09632488
702.018	0.09630186
702.209	0.09623797
702.401	0.09614973
702.592	0.09613159
702.784	0.09609908
702.975	0.09604072
703.166	0.09604816
703.358	0.09602067
703.549	0.09605127
703.741	0.09604797
703.932	0.09600723
704.123	0.09594529
704.315	0.09595496
704.506	0.0959354
704.697	0.09587729
704.888	0.09585378
705.08	0.09584054
705.271	0.09584714
705.462	0.09580941
705.653	0.09578908
705.844	0.09570221
706.035	0.09567807
706.227	0.09564387
706.418	0.09561719
706.609	0.09557598
706.8	0.09559188
706.991	0.09552226
707.182	0.09557269
707.373	0.09555851
707.564	0.09554486
707.755	0.09557077
707.946	0.09558821
708.137	0.09562355
708.328	0.09562272
708.519	0.09560011
708.71	0.09565089
708.901	0.09566663
709.092	0.09563493
709.283	0.09558776
709.473	0.0955215
709.664	0.09560418
709.855	0.09555195
710.046	0.09551743
710.237	0.0954849
710.427	0.09548761
710.618	0.09553987
710.809	0.09553809
711	0.09548001
711.19	0.0954599
711.381	0.09548692
711.572	0.09545227
711.762	0.09543723
711.953	0.09539141
712.144	0.09545521
712.334	0.09544684
712.525	0.09545857
712.715	0.09541509
712.906	0.09540673
713.097	0.09540071
713.287	0.09542089
713.478	0.09537212
713.668	0.09541386
713.859	0.0954397
714.049	0.09550372
714.239	0.09557022
714.43	0.09559072
714.62	0.09552911
714.811	0.09553053
715.001	0.09553061
715.191	0.09554479
715.382	0.0955062
715.572	0.09545493
715.762	0.09543224
715.953	0.09544537
716.143	0.09543922
716.333	0.09541965
716.523	0.09547288
716.714	0.09546146
716.904	0.09546443
717.094	0.095536
717.284	0.09559983
717.474	0.0956694
717.664	0.09571696
717.855	0.09568507
718.045	0.0957071
718.235	0.09576524
718.425	0.09571639
718.615	0.09569709
718.805	0.09567856
718.995	0.09570938
719.185	0.09573824
719.375	0.09578709
719.565	0.09581307
719.755	0.09587428
719.945	0.09587575
720.135	0.09589257
720.325	0.09591842
720.515	0.09595242
720.704	0.09593104
720.894	0.0959178
721.084	0.09591046
721.274	0.09596277
721.464	0.09598176
721.654	0.09598413
721.843	0.09595913
722.033	0.09600548
722.223	0.09603752
722.413	0.09608539
722.602	0.09615236
722.792	0.09618737
722.982	0.09618266
723.171	0.09622837
723.361	0.09626197
723.55	0.09625621
723.74	0.09624159
723.93	0.09619713
724.119	0.09621391
724.309	0.09625134
724.498	0.09626498
724.688	0.09625268
724.877	0.09630239
725.067	0.09631724
725.256	0.09631553
725.446	0.09632309
725.635	0.09624377
725.825	0.09622817
726.014	0.09621403
726.203	0.09616582
726.393	0.09615893
726.582	0.09621957
726.771	0.09625682
726.961	0.0963273
727.15	0.0963562
727.339	0.09635796
727.529	0.0963941
727.718	0.09638237
727.907	0.09637072
728.096	0.09627273
728.286	0.09625759
728.475	0.09626598
728.664	0.09625794
728.853	0.09622687
729.042	0.09627554
729.231	0.09626829
729.42	0.09632686
729.609	0.09629049
729.799	0.09624692
729.988	0.09628329
730.177	0.09632964
730.366	0.09631283
730.555	0.09626411
730.744	0.09627558
730.933	0.09635216
731.122	0.09635042
731.31	0.09632045
731.499	0.0962655
731.688	0.09626167
731.877	0.09631088
732.066	0.09634152
732.255	0.09626726
732.444	0.09627423
732.632	0.09623476
732.821	0.09625953
733.01	0.09628067
733.199	0.0962556
733.388	0.09618337
733.576	0.09621959
733.765	0.09623462
733.954	0.09627899
734.142	0.09624309
734.331	0.09622605
734.52	0.09627219
734.708	0.09631066
734.897	0.09625385
735.086	0.09624957
735.274	0.09625019
735.463	0.096284
735.651	0.0962556
735.84	0.0962199
736.028	0.09622053
736.217	0.09627117
736.405	0.09630384
736.594	0.09635232
736.782	0.09632964
736.971	0.09628717
737.159	0.09631882
737.347	0.09631665
737.536	0.09636275
737.724	0.09635085
737.912	0.0963242
738.101	0.0963937
738.289	0.09647426
738.477	0.09645863
738.666	0.09645563
738.854	0.09641271
739.042	0.09639092
739.23	0.09634767
739.418	0.09630249
739.607	0.09627003
739.795	0.09625473
739.983	0.09626772
740.171	0.09628948
740.359	0.09630069
740.547	0.09633961
740.735	0.09634714
740.923	0.09635715
741.112	0.09635159
741.3	0.09633285
741.488	0.09632372
741.676	0.09630047
741.864	0.09628855
742.052	0.09627824
742.239	0.09632022
742.427	0.09635076
742.615	0.09632252
742.803	0.09630359
742.991	0.0962811
743.179	0.09633116
743.367	0.09634609
743.555	0.09635904
743.742	0.09638804
743.93	0.09647366
744.118	0.09650469
744.306	0.09656201
744.494	0.09658374
744.681	0.09661633
744.869	0.09658013
745.057	0.0965584
745.244	0.09654815
745.432	0.09659236
745.62	0.09661565
745.807	0.09658889
745.995	0.09657286
746.182	0.09656932
746.37	0.0965744
746.558	0.09656167
746.745	0.09653476
746.933	0.09655439
747.12	0.096516
747.308	0.09658504
747.495	0.09658884
747.683	0.09657412
747.87	0.09655143
748.057	0.09650907
748.245	0.09645797
748.432	0.09648796
748.62	0.09645497
748.807	0.09643711
748.994	0.09643108
749.182	0.09641936
749.369	0.09642266
749.556	0.09646488
749.743	0.09648089
749.931	0.09643203
750.118	0.09646336
750.305	0.0965088
750.492	0.096534
750.68	0.09652548
750.867	0.096453
751.054	0.09642613
751.241	0.09647985
751.428	0.09648421
751.615	0.09645509
751.802	0.09645976
751.989	0.09646945
752.176	0.0965231
752.363	0.09653378
752.55	0.09649683
752.737	0.09648445
752.924	0.09647091
753.111	0.09646877
753.298	0.09646868
753.485	0.09646164
753.672	0.09644872
753.859	0.09644282
754.046	0.09645868
754.233	0.09639547
754.42	0.09634479
754.606	0.09632638
754.793	0.09627575
754.98	0.09626686
755.167	0.0962354
755.353	0.09617564
755.54	0.09622994
755.727	0.09627774
755.914	0.09629567
756.1	0.09629203
756.287	0.09627831
756.474	0.09625757
756.66	0.09627832
756.847	0.09626692
757.033	0.09621767
757.22	0.09626157
757.407	0.0962942
757.593	0.09629283
757.78	0.09630774
757.966	0.09633066
758.153	0.09636191
758.339	0.09634551
758.526	0.09625716
758.712	0.09623224
758.898	0.09619135
759.085	0.09621428
759.271	0.09620044
759.458	0.09616748
759.644	0.09620682
759.83	0.09619926
760.017	0.09618895
760.203	0.09621222
760.389	0.09615741
760.576	0.09607029
760.762	0.09602932
760.948	0.09595578
761.134	0.09592806
761.32	0.09585319
761.507	0.09582895
761.693	0.09577608
761.879	0.09576355
762.065	0.09574316
762.251	0.09576889
762.437	0.09579052
762.623	0.09581251
762.809	0.09580952
762.995	0.09582837
763.181	0.09584282
763.367	0.0958399
763.553	0.09585696
763.739	0.09585313
763.925	0.09580668
764.111	0.09570666
764.297	0.0956912
764.483	0.09563245
764.669	0.09553308
764.855	0.09541056
765.041	0.09533614
765.227	0.0952873
765.412	0.09526496
765.598	0.09519166
765.784	0.09516252
765.97	0.09518039
766.156	0.09518415
766.341	0.09512357
766.527	0.09512547
766.713	0.09509525
766.898	0.09512913
767.084	0.0950881
767.27	0.09504563
767.455	0.09504143
767.641	0.09508836
767.827	0.09509948
768.012	0.09514107
768.198	0.09507309
768.383	0.09507226
768.569	0.09506846
768.754	0.09501606
768.94	0.09493123
769.125	0.09483739
769.311	0.09474344
769.496	0.09467487
769.682	0.09466648
769.867	0.09466551
770.052	0.0946223
770.238	0.09461172
770.423	0.09465233
770.608	0.09466149
770.794	0.09470038
770.979	0.09462509
771.164	0.09454746
771.35	0.09449712
771.535	0.09442408
771.72	0.09437626
771.905	0.09434473
772.09	0.09428105
772.276	0.09427558
772.461	0.09423789
772.646	0.09421125
772.831	0.09416574
773.016	0.09411492
773.201	0.09404269
773.386	0.09400146
773.571	0.09395167
773.756	0.09394418
773.941	0.09389795
774.126	0.09392669
774.311	0.0938532
774.496	0.09378126
774.681	0.09371515
774.866	0.09365802
775.051	0.09359168
775.236	0.0935562
775.421	0.09346264
775.606	0.09341553
775.791	0.09338772
775.976	0.09338123
776.16	0.09333572
776.345	0.09330648
776.53	0.09325614
776.715	0.093186
776.899	0.09312732
777.084	0.0930922
777.269	0.09302396
777.454	0.09298793
777.638	0.09286779
777.823	0.09279317
778.008	0.09277307
778.192	0.09278862
778.377	0.09273163
778.561	0.09269888
778.746	0.09263311
778.931	0.09264035
779.115	0.09262446
779.3	0.09252277
779.484	0.09240218
779.669	0.09235663
779.853	0.09223176
780.037	0.09215146
780.222	0.09207162
780.406	0.09201269
780.591	0.09198466
780.775	0.09193763
780.959	0.09187274
781.144	0.09185521
781.328	0.0918261
781.512	0.09173235
781.697	0.09158357
781.881	0.09150322
782.065	0.0914436
782.249	0.09136472
782.434	0.09131154
782.618	0.09123869
782.802	0.09123769
782.986	0.09125671
783.17	0.09124509
783.354	0.09125347
783.539	0.09124394
783.723	0.09115615
783.907	0.09106125
784.091	0.09091662
784.275	0.09081157
784.459	0.09069823
784.643	0.09056653
784.827	0.09047232
785.011	0.09047257
785.195	0.09046233
785.379	0.09042163
785.563	0.09036258
785.747	0.0903098
785.93	0.09025947
786.114	0.0901961
786.298	0.09009077
786.482	0.09000488
786.666	0.0899209
786.85	0.08984739
787.033	0.08981188
787.217	0.0897293
787.401	0.08966213
787.585	0.08960487
787.768	0.08953873
787.952	0.08943736
788.136	0.08938084
788.319	0.08930776
788.503	0.0892316
788.687	0.0891188
788.87	0.08902605
789.054	0.08889513
789.237	0.08887002
789.421	0.08878481
789.605	0.08869798
789.788	0.08857237
789.972	0.0885304
790.155	0.08841594
790.338	0.08833404
790.522	0.08822677
790.705	0.08811521
790.889	0.08800921
791.072	0.08795597
791.256	0.08781653
791.439	0.08773994
791.622	0.08771229
791.806	0.08771754
791.989	0.087669
792.172	0.08757737
792.355	0.08750131
792.539	0.08745653
792.722	0.08736527
792.905	0.08724622
793.088	0.08714013
793.271	0.08710323
793.455	0.08702028
793.638	0.0870006
793.821	0.08695816
794.004	0.08691986
794.187	0.08687289
794.37	0.08677587
794.553	0.08671005
794.736	0.08660234
794.919	0.08647013
795.102	0.08638554
795.285	0.08630529
795.468	0.08618328
795.651	0.08608117
795.834	0.08601584
796.017	0.0860047
796.2	0.08595355
796.383	0.08584806
796.566	0.08574433
796.749	0.08570889
796.931	0.08565665
797.114	0.08552685
797.297	0.08541221
797.48	0.08528016
797.663	0.0852139
797.845	0.08515268
798.028	0.08510847
798.211	0.08500699
798.393	0.08490832
798.576	0.08480264
798.759	0.08473933
798.941	0.08461244
799.124	0.08445389
799.307	0.08430252
799.489	0.08420335
799.672	0.08409328
799.854	0.08403957
800.037	0.08393686
800.219	0.08385564
800.402	0.08385495
800.584	0.08382543
800.767	0.08372977
800.949	0.08361708
801.132	0.08353023
801.314	0.08341785
801.496	0.08328875
801.679	0.08311909
801.861	0.08295214
802.043	0.08286734
802.226	0.08282522
802.408	0.08270424
802.59	0.08263955
802.772	0.08254253
802.955	0.08256296
803.137	0.08246547
803.319	0.08232928
803.501	0.08213664
803.684	0.08199662
803.866	0.08186461
804.048	0.08177015
804.23	0.08156022
804.412	0.08151688
804.594	0.0814435
804.776	0.0814596
804.958	0.08147094
805.14	0.08137457
805.322	0.08129146
805.504	0.08125014
805.686	0.08112314
805.868	0.08105078
806.05	0.08086893
806.232	0.08066859
806.414	0.08057209
806.596	0.08048988
806.778	0.08031422
806.96	0.08016608
807.141	0.08001824
807.323	0.07993022
807.505	0.07983123
807.687	0.07974465
807.869	0.0796432
808.05	0.07959917
808.232	0.07951827
808.414	0.07940769
808.595	0.07926213
808.777	0.07918375
808.959	0.07906922
809.14	0.0789753
809.322	0.07886795
809.504	0.07877128
809.685	0.07871196
809.867	0.07873089
810.048	0.07865589
810.23	0.07856936
810.411	0.07839416
810.593	0.07824507
810.774	0.07810877
810.956	0.07792447
811.137	0.07771487
811.319	0.07755986
811.5	0.07742295
811.681	0.07734351
811.863	0.07718198
812.044	0.07704178
812.225	0.07696474
812.407	0.07681618
812.588	0.07669897
812.769	0.07659953
812.951	0.0764684
813.132	0.07637243
813.313	0.07630941
813.494	0.07619591
813.675	0.07615891
813.857	0.07600874
814.038	0.07590002
814.219	0.07579476
814.4	0.07575918
814.581	0.07562893
814.762	0.07545961
814.943	0.07534629
815.124	0.07530455
815.305	0.07515413
815.486	0.07507543
815.667	0.07489124
815.848	0.07476864
816.029	0.07466831
816.21	0.07449811
816.391	0.07435727
816.572	0.07425001
816.753	0.07410439
816.934	0.07404201
817.115	0.07390335
817.295	0.07385051
817.476	0.07381038
817.657	0.07368138
817.838	0.07359764
818.019	0.0735035
818.199	0.07339578
818.38	0.07335308
818.561	0.07316475
818.741	0.0729955
818.922	0.07289947
819.103	0.07278248
819.283	0.07268747
819.464	0.07258304
819.645	0.07246311
819.825	0.07244496
820.006	0.07230238
820.186	0.07217135
820.367	0.07205889
820.547	0.0718774
820.728	0.07165242
820.908	0.0715298
821.089	0.07139778
821.269	0.07130196
821.45	0.07123619
821.63	0.07110769
821.81	0.07104001
821.991	0.07096572
822.171	0.07084038
822.351	0.07065565
822.532	0.07053115
822.712	0.07031353
822.892	0.07014871
823.072	0.06993428
823.253	0.06979439
823.433	0.06961143
823.613	0.06955112
823.793	0.06946616
823.973	0.06939264
824.154	0.06930704
824.334	0.06921951
824.514	0.06915246
824.694	0.06905166
824.874	0.06893292
825.054	0.06879116
825.234	0.06864057
825.414	0.06847591
825.594	0.06839071
825.774	0.06823582
825.954	0.06815503
826.134	0.0680808
826.314	0.06796732
826.494	0.06791688
826.674	0.06781599
826.854	0.06769207
827.033	0.0675111
827.213	0.06738019
827.393	0.06714239
827.573	0.06695457
827.753	0.06681052
827.932	0.0666837
828.112	0.06654864
828.292	0.0664252
828.472	0.0662235
828.651	0.0661581
828.831	0.06610158
829.011	0.06594169
829.19	0.06585537
829.37	0.06578641
829.549	0.06575006
829.729	0.06568469
829.909	0.06550535
830.088	0.06532487
830.268	0.06512624
830.447	0.06495029
830.627	0.06475001
830.806	0.06462672
830.986	0.06444958
831.165	0.06429251
831.344	0.0642209
831.524	0.06414857
831.703	0.06398066
831.883	0.06384068
832.062	0.06365738
832.241	0.06352589
832.421	0.06340819
832.6	0.06326261
832.779	0.06307944
832.958	0.06295756
833.138	0.06283152
833.317	0.0627442
833.496	0.06262306
833.675	0.06248378
833.854	0.06241296
834.034	0.06232856
834.213	0.06217355
834.392	0.06203259
834.571	0.06183816
834.75	0.06169839
834.929	0.06156656
835.108	0.06126506
835.287	0.06106178
835.466	0.06099824
835.645	0.06088916
835.824	0.06075491
836.003	0.06064354
836.182	0.06056832
836.361	0.06052587
836.54	0.06048171
836.719	0.06031153
836.897	0.06015706
837.076	0.06007283
837.255	0.05990691
837.434	0.05972519
837.613	0.05957474
837.791	0.05947097
837.97	0.05941361
838.149	0.05930147
838.328	0.05926839
838.506	0.05915944
838.685	0.05906133
838.864	0.05895289
839.042	0.05875653
839.221	0.05859238
839.4	0.05845238
839.578	0.05817676
839.757	0.05810824
839.935	0.05798495
840.114	0.05791189
840.292	0.05784431
840.471	0.05778719
840.649	0.05769672
840.828	0.05762527
841.006	0.05753881
841.185	0.05735605
841.363	0.05716996
841.541	0.05698984
841.72	0.05675399
841.898	0.05657662
842.076	0.05647288
842.255	0.0562355
842.433	0.05617567
842.611	0.05613459
842.789	0.05611567
842.968	0.0561005
843.146	0.05609024
843.324	0.05593755
843.502	0.05595644
843.68	0.05591146
843.859	0.05576526
844.037	0.0555405
844.215	0.05538589
844.393	0.05522893
844.571	0.05510706
844.749	0.05487508
844.927	0.05466482
845.105	0.05441666
845.283	0.05430519
845.461	0.0541827
845.639	0.05403235
845.817	0.05390775
845.995	0.05383422
846.173	0.05372545
846.351	0.05367229
846.529	0.05356374
846.706	0.05337506
846.884	0.05322061
847.062	0.05307549
847.24	0.05286953
847.418	0.05266573
847.595	0.05251401
847.773	0.0523571
847.951	0.05225835
848.129	0.05217301
848.306	0.05213806
848.484	0.05202669
848.662	0.05193184
848.839	0.05189954
849.017	0.05186387
849.194	0.05174642
849.372	0.05159826
849.549	0.05136668
849.727	0.05125044
849.905	0.05116295
850.082	0.05095011
850.26	0.05075682
850.437	0.05058513
850.614	0.05044432
850.792	0.05035658
850.969	0.050248
851.147	0.05014405
851.324	0.05001665
851.501	0.04994167
851.679	0.04986266
851.856	0.0497314
852.033	0.04957877
852.211	0.04945144
852.388	0.0492372
852.565	0.049087
852.742	0.04893615
852.92	0.04875995
853.097	0.04862915
853.274	0.04853674
853.451	0.04838101
853.628	0.04836174
853.805	0.04833757
853.982	0.04820109
854.159	0.04805879
854.336	0.04795587
854.514	0.04774994
854.691	0.04757691
854.868	0.04736384
855.045	0.04712238
855.221	0.04689665
855.398	0.0467841
855.575	0.04661829
855.752	0.0466075
855.929	0.04659283
856.106	0.04647084
856.283	0.04640706
856.46	0.04634613
856.637	0.04625596
856.813	0.04614883
856.99	0.04600295
857.167	0.04579081
857.344	0.04565688
857.52	0.04547577
857.697	0.04528639
857.874	0.04512674
858.05	0.04497302
858.227	0.04473791
858.404	0.04466336
858.58	0.04459124
858.757	0.04456188
858.933	0.04450769
859.11	0.04440246
859.287	0.04432474
859.463	0.04428509
859.64	0.04410543
859.816	0.04391167
859.993	0.0436431
860.169	0.04347959
860.345	0.04332865
860.522	0.04323766
860.698	0.0430972
860.875	0.04303305
861.051	0.04294995
861.227	0.04295147
861.404	0.04288712
861.58	0.04279163
861.756	0.04263046
861.932	0.04250789
862.109	0.04240231
862.285	0.04231484
862.461	0.04211369
862.637	0.04200093
862.813	0.04186749
862.99	0.04169773
863.166	0.04156896
863.342	0.04139949
863.518	0.04124956
863.694	0.04116515
863.87	0.04100895
864.046	0.04090436
864.222	0.04086179
864.398	0.04081254
864.574	0.04068663
864.75	0.04056613
864.926	0.04049293
865.102	0.0404046
865.278	0.04022883
865.454	0.04011549
865.63	0.03995502
865.805	0.04000014
865.981	0.03985272
866.157	0.03973796
866.333	0.03967038
866.509	0.03968746
866.684	0.03956144
866.86	0.03949161
867.036	0.0392932
867.212	0.03920239
867.387	0.0391298
867.563	0.03891447
867.739	0.03876846
867.914	0.03872898
868.09	0.03852149
868.265	0.03841169
868.441	0.03833678
868.617	0.03827798
868.792	0.03828011
868.968	0.03821394
869.143	0.03801646
869.319	0.03799718
869.494	0.03788315
869.67	0.03780585
869.845	0.03767438
870.02	0.03753364
870.196	0.03734095
870.371	0.03712321
870.546	0.0369431
870.722	0.03677752
870.897	0.03654722
871.072	0.03634174
871.248	0.03620555
871.423	0.03608345
871.598	0.03618782
871.773	0.03607533
871.949	0.03604542
872.124	0.03602869
872.299	0.03598315
872.474	0.03590611
872.649	0.03582625
872.824	0.03563406
872.999	0.03560395
873.174	0.03539571
873.349	0.03524407
873.524	0.03511294
873.699	0.03494248
873.874	0.0347574
874.049	0.03461674
874.224	0.03446676
874.399	0.03440954
874.574	0.03427578
874.749	0.03418381
874.924	0.03415657
875.099	0.03419439
875.274	0.03415849
875.449	0.0339937
875.623	0.03386332
875.798	0.03377022
875.973	0.03366366
876.148	0.03348409
876.322	0.03333481
876.497	0.03314202
876.672	0.03309401
876.846	0.03305595
877.021	0.0330355
877.196	0.03291975
877.37	0.03292835
877.545	0.03280766
877.72	0.0327452
877.894	0.03272091
878.069	0.03256786
878.243	0.03245642
878.418	0.03234863
878.592	0.0320897
878.767	0.03190544
878.941	0.03174495
879.116	0.0314476
879.29	0.03133394
879.464	0.03123577
879.639	0.03104747
879.813	0.03105034
879.987	0.03109007
880.162	0.03112312
880.336	0.03118262
880.51	0.03113861
880.685	0.03105864
880.859	0.03104072
881.033	0.03090544
881.207	0.03078847
881.381	0.03059483
881.556	0.03043421
881.73	0.03035566
881.904	0.03016768
882.078	0.03005481
882.252	0.02991493
882.426	0.02966404
882.6	0.02959886
882.774	0.02951837
882.948	0.02941155
883.122	0.02936928
883.296	0.02925663
883.47	0.0292418
883.644	0.02929764
883.818	0.02915297
883.992	0.02905232
884.166	0.02882587
884.34	0.02870357
884.514	0.02854824
884.687	0.02851892
884.861	0.02831426
885.035	0.0282917
885.209	0.02824155
885.382	0.02825503
885.556	0.02824977
885.73	0.02833335
885.904	0.02820123
886.077	0.02825689
886.251	0.02811267
886.425	0.02799963
886.598	0.02783198
886.772	0.02763852
886.945	0.02743193
887.119	0.0272524
887.292	0.02710481
887.466	0.02702638
887.64	0.02694679
887.813	0.02695616
887.986	0.02698344
888.16	0.02685834
888.333	0.02674551
888.507	0.02665468
888.68	0.02655199
888.854	0.02650164
889.027	0.02630574
889.2	0.02604204
889.374	0.02600421
889.547	0.0260273
889.72	0.02589425
889.893	0.0257778
890.067	0.02560624
890.24	0.02561566
890.413	0.02568234
890.586	0.02562155
890.759	0.02552221
890.933	0.02555153
891.106	0.0256165
891.279	0.02566631
891.452	0.02552919
891.625	0.0253992
891.798	0.02526568
891.971	0.0251946
892.144	0.02504857
892.317	0.02482247
892.49	0.02460626
892.663	0.02448493
892.836	0.02435271
893.009	0.02439667
893.182	0.02428774
893.355	0.02408619
893.527	0.02407538
893.7	0.02402003
893.873	0.02399156
894.046	0.02380466
894.219	0.02364053
894.391	0.02354534
894.564	0.02352733
894.737	0.02337615
894.91	0.02334313
895.082	0.02320283
895.255	0.02312617
895.428	0.02300735
895.6	0.022881
895.773	0.02289349
895.945	0.02287718
896.118	0.02282718
896.291	0.02278917
896.463	0.02289078
896.636	0.02294144
896.808	0.02302586
896.981	0.02291127
897.153	0.02273002
897.326	0.02259944
897.498	0.02255494
897.67	0.02230963
897.843	0.02214519
898.015	0.0218869
898.187	0.02184329
898.36	0.02186788
898.532	0.02177299
898.704	0.02163422
898.877	0.02169284
899.049	0.0216438
899.221	0.02170912
899.393	0.02167487
899.566	0.02157085
899.738	0.02159115
899.91	0.02154831
900.082	0.02141677
900.254	0.02131876
900.426	0.02112722
900.598	0.02096687
900.77	0.02089769
900.942	0.02074576
901.114	0.02067567
901.286	0.02061501
901.458	0.02050401
901.63	0.02040126
901.802	0.02024448
901.974	0.02017734
902.146	0.02008479
902.318	0.01995089
902.49	0.01991648
902.662	0.01989782
902.834	0.01988599
903.005	0.01979423
903.177	0.01962698
903.349	0.01959275
903.521	0.019456
903.693	0.01929811
903.864	0.019092
904.036	0.01890972
904.208	0.01898698
904.379	0.01897179
904.551	0.01890636
904.723	0.01902477
904.894	0.01907109
905.066	0.01899556
905.237	0.01911589
905.409	0.01895526
905.58	0.01885012
905.752	0.01876094
905.923	0.01863859
906.095	0.01838204
906.266	0.01836535
906.438	0.01816499
906.609	0.01812284
906.78	0.01811088
906.952	0.01795138
907.123	0.01787328
907.295	0.01804565
907.466	0.01798936
907.637	0.01782664
907.808	0.01768374
907.98	0.01757454
908.151	0.01757024
908.322	0.01744268
908.493	0.01719388
908.665	0.01708609
908.836	0.01716932
909.007	0.01709726
909.178	0.01702068
909.349	0.01681925
909.52	0.01674504
909.691	0.01667332
909.862	0.01669656
910.033	0.0165625
910.204	0.01653898
910.375	0.01665053
910.546	0.01675082
910.717	0.01679827
910.888	0.0168782
911.059	0.01684495
911.23	0.01686475
911.401	0.01688447
911.572	0.01669099
911.742	0.0166086
911.913	0.01650094
912.084	0.01639097
912.255	0.01619174
912.426	0.01605614
912.596	0.01591299
912.767	0.01578322
912.938	0.01555919
913.108	0.01538278
913.279	0.01531298
913.45	0.01543961
913.62	0.01555496
913.791	0.01552224
913.962	0.01556625
914.132	0.01566821
914.303	0.01579656
914.473	0.01577804
914.644	0.01564592
914.814	0.01548858
914.985	0.01544873
915.155	0.01531262
915.326	0.0151888
915.496	0.01496646
915.666	0.01485147
915.837	0.01477914
916.007	0.01460247
916.177	0.01451875
916.348	0.01453657
916.518	0.01451072
916.688	0.01468481
916.858	0.01477021
917.029	0.01471671
917.199	0.01467806
917.369	0.01462171
917.539	0.01444322
917.709	0.01451829
917.88	0.01435586
918.05	0.01413148
918.22	0.01406804
918.39	0.01416564
918.56	0.0140804
918.73	0.01412732
918.9	0.01384034
919.07	0.0136967
919.24	0.0136524
919.41	0.01352474
919.58	0.01339753
919.75	0.01341963
919.92	0.01348342
920.09	0.01360707
920.26	0.01370806
920.429	0.01368739
920.599	0.01383566
920.769	0.01388256
920.939	0.01378561
921.109	0.01365036
921.278	0.01337647
921.448	0.01311911
921.618	0.01306131
921.787	0.01280766
921.957	0.01271996
922.127	0.0126923
922.296	0.01258762
922.466	0.01261104
922.636	0.01269558
922.805	0.0126909
922.975	0.01272639
923.144	0.01263251
923.314	0.01264162
923.483	0.01265145
923.653	0.01274225
923.822	0.01267573
923.992	0.01256399
924.161	0.01251807
924.331	0.01241466
924.5	0.01224984
924.669	0.01220284
924.839	0.01210191
925.008	0.01202069
925.177	0.01200531
925.347	0.0119419
925.516	0.01197965
925.685	0.01207595
925.854	0.01214223
926.023	0.01219858
926.193	0.01236531
926.362	0.0124779
926.531	0.01257625
926.7	0.01254724
926.869	0.01245442
927.038	0.01231086
927.207	0.01235515
927.376	0.01217074
927.545	0.01195445
927.715	0.0117565
927.884	0.01158143
928.052	0.01144607
928.221	0.01132913
928.39	0.01106373
928.559	0.01095891
928.728	0.01082379
928.897	0.01082742
929.066	0.01089483
929.235	0.01080189
929.404	0.01080588
929.572	0.01089686
929.741	0.01093465
929.91	0.01101427
930.079	0.01112326
930.247	0.01111948
930.416	0.01130474
930.585	0.01128906
930.753	0.0111844
930.922	0.01109013
931.091	0.01098001
931.259	0.01086297
931.428	0.01074514
931.596	0.01053909
931.765	0.01064849
931.934	0.01068919
932.102	0.01056981
932.27	0.01066095
932.439	0.01067988
932.607	0.01075082
932.776	0.01088382
932.944	0.01066604
933.113	0.01054486
933.281	0.01055634
933.449	0.01048643
933.618	0.01033339
933.786	0.01019811
933.954	0.0099911
934.123	0.0100252
934.291	0.01010569
934.459	0.01021182
934.627	0.01006351
934.795	0.0100729
934.964	0.01012446
935.132	0.01025121
935.3	0.01011478
935.468	0.01011232
935.636	0.01017439
935.804	0.01044411
935.972	0.01014112
936.14	0.01001647
936.308	0.01002805
936.476	0.01023487
936.644	0.01031535
936.812	0.01025534
936.98	0.01007462
937.148	0.0104157
937.316	0.01045649
937.484	0.01042033
937.652	0.01032957
937.82	0.01015037
937.987	0.00999921
938.155	0.01005569
938.323	0.01022604
938.491	0.01029173
938.658	0.0101512
938.826	0.01060138
938.994	0.01066911
939.162	0.01135726
939.329	0.01122881
939.497	0.01171097
939.665	0.01259538
939.832	0.01283935
940	0.0124105
940.167	0.01291468
940.335	0.0127109
940.502	0.01323136
940.67	0.01232253
940.837	0.01173413
941.005	0.01231106
941.172	0.01230158
941.34	0.01271821
941.507	0.01274623
941.674	0.01364877
941.842	0.0141383
942.009	0.01444623
942.177	0.01449804
942.344	0.01466714
942.511	0.01404905
942.678	0.01476367
942.846	0.01474834
943.013	0.01489027
943.18	0.01494122
943.347	0.01471195
943.514	0.01528215
943.682	0.01504792
943.849	0.01416731
944.016	0.01335892
944.183	0.01301898
944.35	0.01291161
944.517	0.01254732
944.684	0.01228015
944.851	0.0122392
945.018	0.01286094
945.185	0.01273821
945.352	0.0132062
945.519	0.01314366
945.686	0.01402133
945.853	0.01381621
946.02	0.01358068
946.187	0.01222899
946.353	0.0124039
946.52	0.01213215
946.687	0.01233989
946.854	0.01146016
947.021	0.01150843
947.187	0.01189802
947.354	0.01245621
947.521	0.01203844
947.687	0.01238007
947.854	0.01209422
948.021	0.01263636
948.187	0.0122908
948.354	0.0122701
948.52	0.01250323
948.687	0.01264712
948.854	0.01158568
949.02	0.01161838
949.187	0.01163212
949.353	0.01175716
949.52	0.01166897
949.686	0.01090789
949.852	0.01080609
950.019	0.01160515
950.185	0.01103721
950.352	0.01032235
950.518	0.01040109
950.684	0.01029249
950.851	0.01050003
951.017	0.01055287
951.183	0.01030814
951.349	0.01029923
951.516	0.01028361
951.682	0.00940209
951.848	0.00908124
952.014	0.0089372
952.18	0.00898984
952.346	0.00860502
952.512	0.00854167
952.679	0.00874246
952.845	0.00919855
953.011	0.00915924
953.177	0.00893789
953.343	0.00888948
953.509	0.00859001
953.675	0.00846942
953.841	0.00826581
954.007	0.00763898
954.172	0.00758479
954.338	0.00723066
954.504	0.00667169
954.67	0.00719379
954.836	0.00709069
955.002	0.00691546
955.167	0.00692739
955.333	0.00670489
955.499	0.0070039
955.665	0.00751324
955.83	0.00722789
955.996	0.00706946
956.162	0.00711437
956.327	0.00748494
956.493	0.00770066
956.659	0.00775076
956.824	0.00747905
956.99	0.00763883
957.155	0.00770722
957.321	0.00735919
957.486	0.00735797
957.652	0.00701823
957.817	0.00708646
957.983	0.0068777
958.148	0.00682733
958.314	0.00670197
958.479	0.00677956
958.644	0.006696
958.81	0.0070761
958.975	0.00684722
959.14	0.00672875
959.306	0.00662502
959.471	0.00681262
959.636	0.00685109
959.801	0.00627788
959.967	0.00598323
960.132	0.00592457
960.297	0.00602738
960.462	0.00609009
960.627	0.00589776
960.792	0.00578716
960.957	0.00624863
961.123	0.00622662
961.288	0.0057902
961.453	0.00572752
961.618	0.00527156
961.783	0.00554534
961.948	0.00546939
962.113	0.00508715
962.277	0.00530718
962.442	0.00539567
962.607	0.00538999
962.772	0.00566526
962.937	0.00514129
963.102	0.0054438
963.267	0.00581721
963.431	0.00548051
963.596	0.00549502
963.761	0.0057393
963.926	0.00545492
964.09	0.00568021
964.255	0.00551802
964.42	0.00550996
964.584	0.00559785
964.749	0.00592156
964.914	0.0055742
965.078	0.00510559
965.243	0.00518531
965.407	0.00525706
965.572	0.00493795
965.736	0.00489717
965.901	0.00488655
966.065	0.00481138
966.23	0.0051671
966.394	0.00515079
966.559	0.00480255
966.723	0.00492176
966.887	0.00476116
967.052	0.00472497
967.216	0.00457449
967.38	0.00466034
967.545	0.00467652
967.709	0.004834
967.873	0.00502296
968.037	0.00519789
968.202	0.00474972
968.366	0.00482525
968.53	0.00502079
968.694	0.00491107
968.858	0.00504973
969.022	0.00503587
969.187	0.00462261
969.351	0.00504376
969.515	0.00529891
969.679	0.00471927
969.843	0.00455947
970.007	0.00430952
970.171	0.00434222
970.335	0.00431611
970.499	0.00443704
970.662	0.00441029
970.826	0.00466748
970.99	0.00499884
971.154	0.0047541
971.318	0.00466464
971.482	0.00501046
971.645	0.00463162
971.809	0.00448949
971.973	0.00476557
972.137	0.00483547
972.3	0.00509213
972.464	0.004671
972.628	0.00456019
972.791	0.00501596
972.955	0.0048183
973.119	0.00481157
973.282	0.00481898
973.446	0.004762
973.609	0.00491101
973.773	0.00532521
973.936	0.00495159
974.1	0.0050924
974.263	0.00491153
974.427	0.0047382
974.59	0.00462868
974.754	0.00476461
974.917	0.00405766
975.08	0.00393148
975.244	0.00417436
975.407	0.00433746
975.57	0.00434511
975.734	0.00433441
975.897	0.0044194
976.06	0.00489341
976.223	0.00516374
976.387	0.00478434
976.55	0.00468098
976.713	0.00480539
976.876	0.00495847
977.039	0.00482941
977.202	0.00460511
977.365	0.00450249
977.528	0.00469493
977.692	0.00452908
977.855	0.00439753
978.018	0.00456881
978.181	0.00475318
978.344	0.00478695
978.506	0.00522161
978.669	0.00500142
978.832	0.00504305
978.995	0.0043228
979.158	0.00406457
979.321	0.00361601
979.484	0.00371798
979.646	0.00319482
979.809	0.00366968
979.972	0.00381354
980.135	0.00443861
980.297	0.00417338
980.46	0.00424736
980.623	0.00479302
980.786	0.00451908
980.948	0.00416264
981.111	0.00408524
981.273	0.00437889
981.436	0.00489756
981.599	0.0051716
981.761	0.00462142
981.924	0.00494847
982.086	0.0048598
982.249	0.00473564
982.411	0.00473402
982.573	0.00402563
982.736	0.00423123
982.898	0.00406434
983.061	0.00380595
983.223	0.00385669
983.385	0.00360686
983.548	0.00269031
983.71	0.00320246
983.872	0.00282431
984.034	0.00325186
984.197	0.00349561
984.359	0.00384013
984.521	0.00420624
984.683	0.00454196
984.845	0.00400673
985.008	0.00383411
985.17	0.00358534
985.332	0.00367441
985.494	0.00364444
985.656	0.0036331
985.818	0.00371964
985.98	0.00446494
986.142	0.00491065
986.304	0.00476707
986.466	0.00487924
986.628	0.00494964
986.79	0.00441431
986.952	0.0046884
987.113	0.00420147
987.275	0.00412203
987.437	0.00374433
987.599	0.00314336
987.761	0.00272854
987.922	0.00287438
988.084	0.00263525
988.246	0.00261744
988.408	0.00280979
988.569	0.00330623
988.731	0.00385928
988.893	0.00375477
989.054	0.00387162
989.216	0.004209
989.377	0.00459903
989.539	0.004387
989.701	0.00460017
989.862	0.00410069
990.024	0.00421158
990.185	0.00460623
990.347	0.0037719
990.508	0.00403081
990.669	0.00388056
990.831	0.00315531
990.992	0.00378683
991.154	0.00376442
991.315	0.00392362
991.476	0.00474191
991.638	0.00405433
991.799	0.00375371
991.96	0.00403212
992.121	0.00361491
992.283	0.00437065
992.444	0.00459241
992.605	0.00465528
992.766	0.00488325
992.927	0.00477074
993.088	0.00500863
993.249	0.00519197
993.41	0.00452567
993.572	0.00394965
993.733	0.00369346
993.894	0.00379457
994.055	0.00427661
994.216	0.00448495
994.376	0.00402101
994.537	0.00375443
994.698	0.00324359
994.859	0.00315897
995.02	0.00319612
995.181	0.00309283
995.342	0.00241888
995.503	0.00245825
995.663	0.00310246
995.824	0.00343946
995.985	0.00294375
996.146	0.00285676
996.306	0.00288696
996.467	0.00246233
996.628	0.0028076
996.788	0.00242705
996.949	0.00335167
997.11	0.00396549
997.27	0.00430841
997.431	0.00499786
997.591	0.00610482
997.752	0.00632256
997.912	0.00642922
998.073	0.00553637
998.233	0.00601292
998.394	0.00577197
998.554	0.00485224
998.714	0.00491191
998.875	0.00514898
999.035	0.00534383
999.196	0.00566895
999.356	0.00481105
999.516	0.00418349
999.676	0.00368614
999.837	0.00405371
999.997	0.00366339
1000.157	0.0030711
1000.317	0.00358105
1000.477	0.00429534
1000.638	0.00477051
1000.798	0.00619808
1000.958	0.0061932
1001.118	0.00590347
1001.278	0.0062011
1001.438	0.00615006
1001.598	0.00636953
1001.758	0.00556699
1001.918	0.0045569
1002.078	0.0037758
1002.238	0.00392749
1002.398	0.00456115
1002.558	0.00437147
1002.718	0.00422571
1002.878	0.00621191
1003.037	0.00662008
1003.197	0.00709325
1003.357	0.00715767
1003.517	0.00571834
1003.677	0.00515242
1003.836	0.00442248
1003.996	0.00279066
1004.156	0.00263292
1004.315	0.00254675
1004.475	0.00299664
1004.635	0.00358107
1004.794	0.00371803
1004.954	0.00392717
1005.114	0.00513196
1005.273	0.00597487
1005.433	0.00579023
1005.592	0.006158
1005.752	0.00593876
1005.911	0.00564103
1006.071	0.00574516
1006.23	0.00665616
1006.389	0.00707561
1006.549	0.00711371
1006.708	0.00685816
1006.868	0.00748366
1007.027	0.00876403
1007.186	0.00898426
1007.345	0.00771491
1007.505	0.00606425
1007.664	0.00625122
1007.823	0.00582807
1007.982	0.00616235
1008.142	0.0070692
1008.301	0.00559479
1008.46	0.00688211
1008.619	0.00783792
1008.778	0.00820874
1008.937	0.00809897
1009.096	0.00865628
1009.255	0.0075906
1009.414	0.00844233
1009.573	0.00666677
1009.732	0.00721383
1009.891	0.0058843
1010.05	0.00651068
1010.209	0.00642072
1010.368	0.00605644
1010.527	0.00704382
1010.686	0.00732332
1010.845	0.00737275
1011.003	0.00822731
1011.162	0.00732331
1011.321	0.00614388
1011.48	0.0056951
1011.638	0.00529839
1011.797	0.00584687
1011.956	0.00638213
1012.115	0.00474049
1012.273	0.0069106
1012.432	0.00562327
1012.59	0.00548879
1012.749	0.005576
1012.908	0.00651137
1013.066	0.00587092
1013.225	0.00736899
1013.383	0.00669555
1013.542	0.00781796
1013.7	0.00917331
1013.859	0.00876719
1014.017	0.00725542
1014.175	0.00549219
1014.334	0.00728593
1014.492	0.00740946
1014.65	0.01015732
1014.809	0.01026214
1014.967	0.01191178
1015.125	0.01210371
1015.284	0.0114542
1015.442	0.01014737
1015.6	0.01015084
1015.758	0.00755648
1015.916	0.00811331
1016.075	0.0069645
1016.233	0.00652571
1016.391	0.00842765
1016.549	0.00917949
1016.707	0.0080703
1016.865	0.00849762
1017.023	0.00788565
1017.181	0.00786839
1017.339	0.00914351
1017.497	0.01076934
1017.655	0.0108548
1017.813	0.01059227
1017.971	0.01130071
1018.129	0.01206738
1018.286	0.01330855
1018.444	0.01450601
1018.602	0.01352791
1018.76	0.01200728
1018.918	0.01257669
1019.075	0.01144998
1019.233	0.01332473
1019.391	0.01164109
1019.549	0.01085355
1019.706	0.00942075
1019.864	0.01114335
1020.022	0.0123266
1020.179	0.01434577
1020.337	0.00987261
1020.494	0.01040982
1020.652	0.01114919
1020.809	0.0111978
1020.967	0.00904279
1021.124	0.00835217
1021.282	0.00843913
1021.439	0.01111447
1021.597	0.01095396
1021.754	0.00929637
1021.911	0.01054905
1022.069	0.01189184
1022.226	0.01437257
1022.384	0.01176682
1022.541	0.00709096
1022.698	0.00864519
1022.855	0.00526278
1023.013	0.00519092
1023.17	0.00497739
1023.327	0.00559973
1023.484	0.00818118
1023.641	0.01058053
1023.798	0.01275984
1023.956	0.01784044
1024.113	0.01944378
1024.27	0.01956097
1024.427	0.01644392
1024.584	0.01572038
1024.741	0.01630122
1024.898	0.01660598
1025.055	0.01487649
1025.212	0.01379438
1025.369	0.01372009
1025.525	0.01309867
1025.682	0.0133001
1025.839	0.01572127
1025.996	0.01080252
1026.153	0.01283953
1026.31	0.01544281
1026.466	0.01415473
1026.623	0.01389078
1026.78	0.01537721
1026.937	0.01255089
1027.093	0.01553893
1027.25	0.01612065
1027.407	0.01535087
1027.563	0.0141729
1027.72	0.01389189
1027.876	0.00853808
1028.033	0.00637066
1028.19	0.00614782
1028.346	0.00458245
1028.503	-0.00240315
1028.659	-0.00109135
1028.816	-0.00216003
1028.972	0.00209604
1029.128	0.00726048
1029.285	0.0094406
1029.441	0.01078934
1029.598	0.0136722
1029.754	0.01328915
1029.91	0.01713779
1030.067	0.01671603
1030.223	0.01923108
1030.379	0.01482252
1030.535	0.01263815
1030.691	0.01898242
1030.848	0.02183227
1031.004	0.02098837
1031.16	0.02271247
1031.316	0.01899461
1031.472	0.02393109
1031.628	0.03173759
1031.784	0.03065022
1031.94	0.03486258
1032.096	0.03516618
1032.252	0.03223197
1032.408	0.02950907
1032.564	0.0316354
1032.72	0.02658685
1032.876	0.02608004
1033.032	0.02651179
1033.188	0.02129291
1033.344	0.02677864
1033.5	0.0340629
1033.655	0.03161953
1033.811	0.03445879
1033.967	0.03745144
