Data from 0_1_mm_pl_30pc_Absorbance__0__15-46-56-086.txt Node

Date: Fri Feb 24 15:46:56 CET 2023
User: Ange
Spectrometer: FLMT08341
Trigger mode: 0
Integration Time (sec): 1.000000E-2
Scans to average: 400
Electric dark correction enabled: true
Nonlinearity correction enabled: false
Boxcar width: 3
XAxis mode: Wavelengths
Number of Pixels in Spectrum: 3648
>>>>>Begin Spectral Data<<<<<
345.271	-0.03873102
345.487	-0.03317815
345.704	-0.02356983
345.921	-0.03250479
346.137	-0.02064974
346.354	0.00979395
346.571	0.0294155
346.787	0.01216242
347.004	0.13611394
347.22	0.09910071
347.437	0.02408861
347.653	-0.03208324
347.87	-0.68542755
348.086	0.95995793
348.303	0.09959659
348.519	0.53179792
348.736	0.49424765
348.952	0.49929371
349.169	0.52161185
349.385	0.55238354
349.601	0.54525194
349.818	0.54614994
350.034	0.53963857
350.251	0.5389055
350.467	0.54238698
350.683	0.52332052
350.9	0.52128825
351.116	0.51694546
351.332	0.50671084
351.549	0.52602197
351.765	0.53901046
351.981	0.5494775
352.197	0.57619617
352.414	0.6032319
352.63	0.61753189
352.846	0.63897629
353.062	0.61925614
353.278	0.60306375
353.495	0.6177174
353.711	0.61059409
353.927	0.60568471
354.143	0.60368523
354.359	0.59230582
354.575	0.59231538
354.792	0.61242326
355.008	0.59976302
355.224	0.59558705
355.44	0.59167602
355.656	0.5926077
355.872	0.6013373
356.088	0.63658742
356.304	0.63297064
356.52	0.62987136
356.736	0.63287731
356.952	0.63575043
357.168	0.6338459
357.384	0.64231281
357.6	0.61687754
357.816	0.62689384
358.032	0.64216092
358.248	0.66336768
358.464	0.66239584
358.679	0.67049879
358.895	0.66617495
359.111	0.67523979
359.327	0.65890167
359.543	0.65765337
359.759	0.65548007
359.974	0.65113542
360.19	0.64267115
360.406	0.64016315
360.622	0.63328376
360.838	0.62757149
361.053	0.63000837
361.269	0.62984044
361.485	0.63269888
361.701	0.63568246
361.916	0.62756884
362.132	0.6272862
362.348	0.63277413
362.563	0.63141833
362.779	0.61876848
362.995	0.6201353
363.21	0.62736221
363.426	0.63106455
363.641	0.63112597
363.857	0.63417794
364.073	0.62638241
364.288	0.62418255
364.504	0.63390973
364.719	0.63067851
364.935	0.62791297
365.15	0.630097
365.366	0.62969881
365.581	0.63760404
365.797	0.63770072
366.012	0.62362986
366.228	0.61279277
366.443	0.62023237
366.658	0.6161195
366.874	0.609881
367.089	0.61160091
367.305	0.61310007
367.52	0.61335635
367.735	0.6121476
367.951	0.60363502
368.166	0.60396799
368.381	0.61083319
368.597	0.60097498
368.812	0.60278268
369.027	0.60484259
369.243	0.60775198
369.458	0.6165496
369.673	0.61705174
369.888	0.61341928
370.104	0.60989462
370.319	0.609238
370.534	0.60383501
370.749	0.59988446
370.964	0.59482551
371.179	0.59130951
371.395	0.5843418
371.61	0.58677967
371.825	0.57808339
372.04	0.57718469
372.255	0.57205266
372.47	0.56604836
372.685	0.55870959
372.9	0.55496053
373.115	0.54821557
373.33	0.54775037
373.545	0.54589376
373.76	0.54595187
373.975	0.5409959
374.19	0.53746251
374.405	0.53794894
374.62	0.54191605
374.835	0.54576726
375.05	0.54220569
375.265	0.53962482
375.48	0.54051981
375.695	0.54709125
375.91	0.54212675
376.125	0.53142886
376.339	0.52103756
376.554	0.51850758
376.769	0.51555117
376.984	0.51065384
377.199	0.50761905
377.414	0.50498078
377.628	0.50797539
377.843	0.50825327
378.058	0.50693233
378.273	0.50751011
378.487	0.50785205
378.702	0.50474723
378.917	0.50207324
379.131	0.49753976
379.346	0.49151395
379.561	0.48638429
379.775	0.48211047
379.99	0.47622957
380.205	0.47065222
380.419	0.46637799
380.634	0.45994871
380.848	0.45997361
381.063	0.45940193
381.278	0.46029873
381.492	0.45602608
381.707	0.4563953
381.921	0.45389843
382.136	0.45627155
382.35	0.45254722
382.565	0.4472152
382.779	0.44344315
382.994	0.44305569
383.208	0.43768385
383.422	0.43886734
383.637	0.43568874
383.851	0.4355341
384.066	0.43508666
384.28	0.43353048
384.494	0.43197371
384.709	0.4314607
384.923	0.4279712
385.137	0.42348944
385.352	0.42120643
385.566	0.41983032
385.78	0.41607695
385.995	0.41258212
386.209	0.40880169
386.423	0.40726831
386.637	0.40665874
386.852	0.4024096
387.066	0.39897862
387.28	0.3962371
387.494	0.39555254
387.708	0.39402957
387.923	0.39140212
388.137	0.39041668
388.351	0.38929701
388.565	0.38876575
388.779	0.3871926
388.993	0.38733581
389.207	0.38582349
389.421	0.38327025
389.635	0.37886867
389.85	0.377157
390.064	0.37496822
390.278	0.3732016
390.492	0.36997717
390.706	0.36796923
390.92	0.36698778
391.134	0.36708556
391.348	0.36712867
391.561	0.36469452
391.775	0.36150436
391.989	0.35890579
392.203	0.35769217
392.417	0.35611858
392.631	0.35510542
392.845	0.35213279
393.059	0.35128878
393.273	0.34998375
393.486	0.34765875
393.7	0.34468645
393.914	0.34341713
394.128	0.34070617
394.342	0.33819824
394.555	0.33495471
394.769	0.33373729
394.983	0.33282563
395.197	0.33193155
395.41	0.32983846
395.624	0.32887876
395.838	0.32738253
396.051	0.32788738
396.265	0.32569541
396.479	0.3242454
396.692	0.32274463
396.906	0.32051194
397.12	0.3187886
397.333	0.31779192
397.547	0.31607079
397.76	0.31580539
397.974	0.31436785
398.187	0.31318366
398.401	0.31319782
398.614	0.31184449
398.828	0.31041636
399.041	0.30885133
399.255	0.30727082
399.468	0.30583702
399.682	0.30446593
399.895	0.30324832
400.109	0.3020391
400.322	0.30108503
400.536	0.29855798
400.749	0.29802756
400.962	0.29683476
401.176	0.2955379
401.389	0.29358046
401.602	0.29143532
401.816	0.29033656
402.029	0.29044498
402.242	0.28859381
402.456	0.28737469
402.669	0.28578083
402.882	0.28380858
403.095	0.28397591
403.309	0.28241335
403.522	0.28137058
403.735	0.28019024
403.948	0.27945364
404.161	0.27999872
404.375	0.2795917
404.588	0.27795638
404.801	0.27687912
405.014	0.27508459
405.227	0.27497283
405.44	0.27427171
405.653	0.2728449
405.866	0.27147012
406.079	0.270296
406.293	0.26955088
406.506	0.26887444
406.719	0.26718315
406.932	0.26611128
407.145	0.26427829
407.358	0.26452671
407.571	0.26353282
407.784	0.26302994
407.996	0.26226888
408.209	0.26121622
408.422	0.25993714
408.635	0.25946755
408.848	0.25832136
409.061	0.25730728
409.274	0.25631704
409.487	0.25542252
409.7	0.25480411
409.912	0.25476911
410.125	0.25401725
410.338	0.25287491
410.551	0.25208547
410.764	0.2509619
410.976	0.25035066
411.189	0.24961473
411.402	0.24798569
411.615	0.24760216
411.827	0.24702797
412.04	0.24654576
412.253	0.24593709
412.465	0.24466518
412.678	0.24386841
412.891	0.24361782
413.103	0.2422083
413.316	0.2414102
413.529	0.24114904
413.741	0.24069871
413.954	0.24059496
414.166	0.24023792
414.379	0.23945177
414.591	0.23947522
414.804	0.23887899
415.016	0.2381803
415.229	0.23741761
415.441	0.23644424
415.654	0.23595165
415.866	0.23553238
416.079	0.23506511
416.291	0.23447312
416.504	0.23399839
416.716	0.23358653
416.928	0.2334331
417.141	0.23239273
417.353	0.23225875
417.566	0.23126803
417.778	0.23092937
417.99	0.22997737
418.203	0.22913927
418.415	0.22866266
418.627	0.22855192
418.839	0.22804176
419.052	0.22829758
419.264	0.22775632
419.476	0.2275788
419.688	0.22730554
419.901	0.22686214
420.113	0.22651001
420.325	0.22578351
420.537	0.2246479
420.749	0.22433989
420.961	0.22413692
421.174	0.22360631
421.386	0.22296332
421.598	0.2222491
421.81	0.22185533
422.022	0.22157828
422.234	0.22122202
422.446	0.22041823
422.658	0.22000107
422.87	0.21981399
423.082	0.21944662
423.294	0.21888284
423.506	0.21868946
423.718	0.21816915
423.93	0.21790621
424.142	0.21747032
424.354	0.21694988
424.566	0.21671782
424.778	0.21660525
424.99	0.2161775
425.202	0.21561233
425.414	0.21541485
425.625	0.21525206
425.837	0.2146274
426.049	0.21434695
426.261	0.21381123
426.473	0.21313089
426.684	0.21316292
426.896	0.21290666
427.108	0.21231741
427.32	0.21220526
427.531	0.21177973
427.743	0.2116758
427.955	0.21187627
428.167	0.21128924
428.378	0.21070308
428.59	0.21071518
428.802	0.21043746
429.013	0.21005072
429.225	0.20972288
429.436	0.20940673
429.648	0.20934333
429.86	0.20950123
430.071	0.20949376
430.283	0.20940497
430.494	0.20929162
430.706	0.20912256
430.917	0.20881458
431.129	0.20854211
431.34	0.20821743
431.552	0.207951
431.763	0.20760767
431.975	0.20755471
432.186	0.20706408
432.398	0.20679312
432.609	0.20631551
432.821	0.20597258
433.032	0.20549253
433.243	0.2053257
433.455	0.20508401
433.666	0.20500517
433.877	0.20493284
434.089	0.20478123
434.3	0.2045297
434.511	0.20433303
434.723	0.20419076
434.934	0.20373663
435.145	0.20343281
435.356	0.20315775
435.568	0.20294958
435.779	0.20268808
435.99	0.20231111
436.201	0.20207358
436.412	0.20184341
436.624	0.20180725
436.835	0.20163036
437.046	0.20160264
437.257	0.20148758
437.468	0.20187811
437.679	0.20185536
437.89	0.20188435
438.101	0.20173638
438.312	0.20167908
438.523	0.2016923
438.734	0.20159358
438.945	0.20124659
439.156	0.20079349
439.367	0.20068137
439.578	0.20072229
439.789	0.20039231
440	0.20013194
440.211	0.1998791
440.422	0.19974475
440.633	0.19995609
440.844	0.19972495
441.055	0.19922602
441.266	0.19935822
441.477	0.1991458
441.687	0.19921714
441.898	0.19907796
442.109	0.19889147
442.32	0.19882188
442.531	0.19883362
442.741	0.19848588
442.952	0.19863486
443.163	0.1984985
443.374	0.19826688
443.584	0.19796787
443.795	0.19806735
444.006	0.19803407
444.216	0.19789984
444.427	0.19763703
444.638	0.19747547
444.848	0.19741812
445.059	0.19753593
445.27	0.19717754
445.48	0.19705534
445.691	0.19702091
445.901	0.19685727
446.112	0.19677852
446.323	0.19647674
446.533	0.19622335
446.744	0.19618405
446.954	0.19578172
447.165	0.19568699
447.375	0.19569631
447.586	0.19559433
447.796	0.19577758
448.006	0.1957923
448.217	0.19576216
448.427	0.19584362
448.638	0.19562465
448.848	0.19534662
449.058	0.1951536
449.269	0.1950308
449.479	0.19477599
449.689	0.19464953
449.9	0.19459506
450.11	0.19451402
450.32	0.19459377
450.531	0.19440285
450.741	0.19420764
450.951	0.19417211
451.161	0.19406141
451.372	0.19403239
451.582	0.19430123
451.792	0.1941807
452.002	0.19410554
452.212	0.19388278
452.422	0.19377135
452.633	0.19360881
452.843	0.19360632
453.053	0.19316409
453.263	0.19305787
453.473	0.19300654
453.683	0.19320468
453.893	0.19325497
454.103	0.19335071
454.313	0.19346441
454.523	0.1936047
454.733	0.19365534
454.943	0.19382178
455.153	0.19384306
455.363	0.19382044
455.573	0.19380342
455.783	0.19380829
455.993	0.19363393
456.203	0.19365513
456.413	0.19359138
456.623	0.19346986
456.833	0.19356876
457.042	0.19344949
457.252	0.19328405
457.462	0.19337178
457.672	0.1933314
457.882	0.19328952
458.091	0.19331
458.301	0.19315677
458.511	0.1931981
458.721	0.19325892
458.931	0.19329247
459.14	0.19330379
459.35	0.19354692
459.56	0.19376743
459.769	0.194051
459.979	0.19412636
460.189	0.1940372
460.398	0.19412264
460.608	0.19418403
460.817	0.19412048
461.027	0.19407847
461.237	0.19397847
461.446	0.19406785
461.656	0.19428562
461.865	0.19428912
462.075	0.19432746
462.284	0.19450338
462.494	0.19440685
462.703	0.19434086
462.913	0.19448232
463.122	0.19449867
463.332	0.19463132
463.541	0.19473991
463.751	0.19462724
463.96	0.19478794
464.169	0.19487362
464.379	0.19492795
464.588	0.19496959
464.797	0.19507284
465.007	0.19525293
465.216	0.19540498
465.425	0.19551996
465.635	0.19571725
465.844	0.19574298
466.053	0.195968
466.263	0.19602638
466.472	0.19603353
466.681	0.19615637
466.89	0.19619816
467.099	0.19637271
467.309	0.1965056
467.518	0.19659609
467.727	0.19666364
467.936	0.19670597
468.145	0.19681699
468.354	0.19706749
468.563	0.1971289
468.772	0.19719136
468.982	0.197317
469.191	0.19749298
469.4	0.19757083
469.609	0.19775321
469.818	0.19798061
470.027	0.19805509
470.236	0.19815116
470.445	0.19817741
470.654	0.19822215
470.863	0.19828895
471.072	0.19842648
471.28	0.19831401
471.489	0.19854611
471.698	0.19876576
471.907	0.19889837
472.116	0.1990906
472.325	0.19935018
472.534	0.19944767
472.743	0.1996144
472.951	0.19990705
473.16	0.20008817
473.369	0.200261
473.578	0.20042723
473.786	0.20070641
473.995	0.20090328
474.204	0.20120282
474.413	0.20113428
474.621	0.20132371
474.83	0.20155369
475.039	0.20174087
475.247	0.20183534
475.456	0.20198903
475.665	0.20217133
475.873	0.20239573
476.082	0.20250723
476.291	0.20271921
476.499	0.20294952
476.708	0.20309607
476.916	0.20334856
477.125	0.20351035
477.333	0.20371979
477.542	0.20401769
477.75	0.20415723
477.959	0.20439317
478.167	0.20469494
478.376	0.20495022
478.584	0.20515649
478.793	0.20531685
479.001	0.20546092
479.209	0.20565513
479.418	0.20586212
479.626	0.20601532
479.834	0.20611756
480.043	0.20639985
480.251	0.20661367
480.459	0.20692344
480.668	0.20721255
480.876	0.20743316
481.084	0.20770504
481.293	0.20788733
481.501	0.20804979
481.709	0.20842448
481.917	0.20866753
482.125	0.2088653
482.334	0.2091536
482.542	0.20939258
482.75	0.20971733
482.958	0.2100916
483.166	0.21037129
483.374	0.21060393
483.583	0.21097264
483.791	0.2112182
483.999	0.21150174
484.207	0.21177917
484.415	0.21197276
484.623	0.21220737
484.831	0.21245203
485.039	0.21267036
485.247	0.21289086
485.455	0.2131825
485.663	0.21348613
485.871	0.21376516
486.079	0.21400714
486.287	0.21437105
486.495	0.21466862
486.702	0.21500185
486.91	0.21531358
487.118	0.2156335
487.326	0.21582212
487.534	0.21614852
487.742	0.21646325
487.95	0.21670046
488.157	0.21699898
488.365	0.21734982
488.573	0.21762262
488.781	0.21805251
488.988	0.21837125
489.196	0.21866142
489.404	0.21898705
489.612	0.2192746
489.819	0.21949043
490.027	0.21984757
490.235	0.22009275
490.442	0.22046229
490.65	0.22079675
490.857	0.22123055
491.065	0.22155642
491.273	0.22193565
491.48	0.22227645
491.688	0.22268359
491.895	0.22308137
492.103	0.22342002
492.31	0.22368979
492.518	0.22409033
492.725	0.22448114
492.933	0.22482408
493.14	0.2251913
493.348	0.22545489
493.555	0.22577468
493.763	0.22616274
493.97	0.22653767
494.177	0.22691367
494.385	0.22723138
494.592	0.22757284
494.8	0.22792357
495.007	0.22837404
495.214	0.2287924
495.422	0.2291189
495.629	0.22949241
495.836	0.22994215
496.043	0.230418
496.251	0.23091304
496.458	0.23127144
496.665	0.2316678
496.872	0.23208015
497.08	0.23252437
497.287	0.23290014
497.494	0.23332869
497.701	0.2337069
497.908	0.23411842
498.115	0.23448883
498.322	0.23495318
498.53	0.23531562
498.737	0.23573062
498.944	0.23602125
499.151	0.23645707
499.358	0.23688711
499.565	0.23723458
499.772	0.23767569
499.979	0.23810134
500.186	0.2386104
500.393	0.2390519
500.6	0.23945128
500.807	0.23985525
501.014	0.24034305
501.221	0.24078667
501.427	0.24117588
501.634	0.24157735
501.841	0.24198259
502.048	0.24241475
502.255	0.24278939
502.462	0.24322823
502.669	0.24369055
502.875	0.24418567
503.082	0.24451665
503.289	0.24497685
503.496	0.24542165
503.702	0.24591352
503.909	0.24641397
504.116	0.24684167
504.323	0.24728765
504.529	0.2478928
504.736	0.24839657
504.943	0.24881862
505.149	0.24937595
505.356	0.24980536
505.563	0.25027896
505.769	0.2507363
505.976	0.25117904
506.182	0.25171088
506.389	0.25221196
506.595	0.25267683
506.802	0.25317568
507.008	0.2536207
507.215	0.25411924
507.421	0.25460023
507.628	0.25500434
507.834	0.2554693
508.041	0.25590153
508.247	0.25631293
508.454	0.25677069
508.66	0.25718599
508.866	0.25763126
509.073	0.2581623
509.279	0.25867698
509.486	0.25920635
509.692	0.25973614
509.898	0.26030622
510.105	0.26090754
510.311	0.26144501
510.517	0.26196299
510.723	0.26247304
510.93	0.26299693
511.136	0.26351773
511.342	0.26398561
511.548	0.26445967
511.754	0.26496443
511.961	0.26543496
512.167	0.2659413
512.373	0.26644142
512.579	0.26699264
512.785	0.26751918
512.991	0.26806824
513.197	0.26859741
513.404	0.26917434
513.61	0.26971807
513.816	0.27024405
514.022	0.27076549
514.228	0.27132808
514.434	0.27180161
514.64	0.27229967
514.846	0.27281855
515.052	0.2733945
515.258	0.27391557
515.464	0.27446385
515.669	0.27499037
515.875	0.27554341
516.081	0.27612615
516.287	0.27666899
516.493	0.27719973
516.699	0.2776299
516.905	0.27819491
517.111	0.27871351
517.316	0.27934125
517.522	0.27989379
517.728	0.28045532
517.934	0.28101599
518.139	0.28161432
518.345	0.282094
518.551	0.28273188
518.757	0.28320935
518.962	0.28373923
519.168	0.28434252
519.374	0.28485261
519.579	0.28549917
519.785	0.28616188
519.991	0.28666472
520.196	0.28731879
520.402	0.2879431
520.607	0.28848507
520.813	0.28915417
521.018	0.28970141
521.224	0.29018558
521.429	0.29078361
521.635	0.29131231
521.84	0.29181518
522.046	0.29236993
522.251	0.29283568
522.457	0.29339262
522.662	0.294025
522.868	0.29457655
523.073	0.29509165
523.279	0.29567598
523.484	0.29624783
523.689	0.29689053
523.895	0.29753236
524.1	0.29806213
524.305	0.2985989
524.511	0.29927903
524.716	0.29989783
524.921	0.30052499
525.126	0.30106397
525.332	0.3015999
525.537	0.30221721
525.742	0.30289048
525.947	0.30344159
526.153	0.30403968
526.358	0.3046805
526.563	0.3052364
526.768	0.30586047
526.973	0.30647066
527.178	0.307038
527.383	0.30765223
527.588	0.30824591
527.794	0.30876712
527.999	0.30939713
528.204	0.30998038
528.409	0.31055334
528.614	0.31115627
528.819	0.31175529
529.024	0.31226187
529.229	0.31286616
529.434	0.31349898
529.639	0.31406949
529.843	0.31469055
530.048	0.31529589
530.253	0.31580491
530.458	0.31645417
530.663	0.31702887
530.868	0.31763572
531.073	0.31825784
531.278	0.3187929
531.482	0.31936703
531.687	0.32001597
531.892	0.32063923
532.097	0.32114951
532.302	0.32174858
532.506	0.32232493
532.711	0.32288693
532.916	0.32349287
533.12	0.32404662
533.325	0.32465279
533.53	0.32533992
533.734	0.3258921
533.939	0.32655684
534.144	0.32717561
534.348	0.32779472
534.553	0.3284135
534.757	0.3290094
534.962	0.32956421
535.167	0.33010901
535.371	0.33061119
535.576	0.33126171
535.78	0.33185223
535.985	0.33245678
536.189	0.33304878
536.394	0.33375564
536.598	0.33441489
536.803	0.33501955
537.007	0.33561543
537.211	0.33624189
537.416	0.33679075
537.62	0.33735198
537.825	0.33786904
538.029	0.3385405
538.233	0.33908151
538.438	0.3396766
538.642	0.34015915
538.846	0.34079324
539.05	0.34137899
539.255	0.34188683
539.459	0.34242463
539.663	0.3430269
539.867	0.34361872
540.072	0.34422753
540.276	0.34478872
540.48	0.34539602
540.684	0.34604409
540.888	0.34663544
541.092	0.34729172
541.297	0.34783763
541.501	0.34841524
541.705	0.34901535
541.909	0.34953046
542.113	0.3500512
542.317	0.35066039
542.521	0.35120971
542.725	0.35176209
542.929	0.35231988
543.133	0.35286084
543.337	0.35347894
543.541	0.35406484
543.745	0.35455565
543.949	0.35507636
544.153	0.35563578
544.357	0.35621485
544.56	0.35681477
544.764	0.35741345
544.968	0.35796754
545.172	0.35846684
545.376	0.35904261
545.58	0.35960391
545.783	0.36018593
545.987	0.36069263
546.191	0.36119386
546.395	0.36177552
546.598	0.36237112
546.802	0.362902
547.006	0.363432
547.21	0.36384165
547.413	0.36442127
547.617	0.36494168
547.821	0.36545711
548.024	0.36602625
548.228	0.36655107
548.431	0.36708439
548.635	0.36769827
548.839	0.36820396
549.042	0.3687145
549.246	0.3691818
549.449	0.36964439
549.653	0.37017554
549.856	0.37069125
550.06	0.37118211
550.263	0.37170395
550.467	0.37220372
550.67	0.37277393
550.874	0.37316853
551.077	0.37363894
551.28	0.37416331
551.484	0.37466676
551.687	0.37512418
551.891	0.37567145
552.094	0.37608314
552.297	0.37670135
552.501	0.3772206
552.704	0.3776731
552.907	0.37808076
553.11	0.37852307
553.314	0.37896151
553.517	0.37942771
553.72	0.37987854
553.923	0.38034264
554.127	0.38077269
554.33	0.38120939
554.533	0.38168444
554.736	0.3820459
554.939	0.3825188
555.142	0.38302212
555.345	0.38347731
555.549	0.38398144
555.752	0.38446967
555.955	0.38488733
556.158	0.38550111
556.361	0.38598472
556.564	0.38633314
556.767	0.38674715
556.97	0.38720395
557.173	0.38769216
557.376	0.38818309
557.579	0.38846509
557.782	0.38888779
557.984	0.38934722
558.187	0.38976878
558.39	0.3901401
558.593	0.39058578
558.796	0.39091132
558.999	0.39134894
559.202	0.39172646
559.404	0.39206086
559.607	0.39248249
559.81	0.39282114
560.013	0.39312178
560.216	0.39355069
560.418	0.39397105
560.621	0.39429543
560.824	0.39471462
561.026	0.39514443
561.229	0.39549082
561.432	0.3959174
561.634	0.39628094
561.837	0.39663202
562.04	0.39706141
562.242	0.39745593
562.445	0.39773991
562.647	0.39821846
562.85	0.39845946
563.053	0.39880089
563.255	0.39913398
563.458	0.39951168
563.66	0.39981903
563.863	0.40020739
564.065	0.40047042
564.268	0.40084331
564.47	0.40122684
564.672	0.4014581
564.875	0.40169385
565.077	0.40200982
565.28	0.40228253
565.482	0.4026011
565.684	0.40287989
565.887	0.40308776
566.089	0.40346349
566.291	0.4038108
566.494	0.40410279
566.696	0.4043707
566.898	0.40460466
567.1	0.40485765
567.303	0.4051522
567.505	0.40540724
567.707	0.40558371
567.909	0.40583593
568.111	0.4060457
568.314	0.40632907
568.516	0.40665582
568.718	0.40694443
568.92	0.40717166
569.122	0.40742739
569.324	0.40766221
569.526	0.40787066
569.728	0.40812569
569.93	0.40833997
570.132	0.40850049
570.334	0.40871204
570.536	0.4089496
570.738	0.40909505
570.94	0.40926629
571.142	0.40946644
571.344	0.4095939
571.546	0.40975995
571.748	0.40997748
571.95	0.41006286
572.152	0.41023429
572.354	0.41051494
572.555	0.41069867
572.757	0.41097335
572.959	0.41112485
573.161	0.41121662
573.363	0.41140211
573.564	0.41173931
573.766	0.41185322
573.968	0.41199893
574.17	0.41208362
574.371	0.41230321
574.573	0.41248456
574.775	0.41264422
574.976	0.41258557
575.178	0.41271089
575.38	0.41271997
575.581	0.41280298
575.783	0.41293154
575.985	0.41311277
576.186	0.41324756
576.388	0.41346656
576.589	0.41354702
576.791	0.41376884
576.992	0.41392316
577.194	0.41402471
577.395	0.41408524
577.597	0.41424627
577.798	0.41428346
578	0.41441874
578.201	0.41457453
578.402	0.41468203
578.604	0.41465299
578.805	0.41476264
579.007	0.41483928
579.208	0.41500846
579.409	0.41504192
579.611	0.41507117
579.812	0.41516363
580.013	0.41537717
580.215	0.41531763
580.416	0.41535881
580.617	0.41528228
580.818	0.41540843
581.019	0.41540741
581.221	0.41547992
581.422	0.41548462
581.623	0.41569975
581.824	0.41559588
582.025	0.41568127
582.226	0.41563237
582.428	0.41577302
582.629	0.41572276
582.83	0.41581875
583.031	0.4157422
583.232	0.41594838
583.433	0.41605404
583.634	0.4161457
583.835	0.41609893
584.036	0.41616916
584.237	0.41604675
584.438	0.41610741
584.639	0.41606466
584.84	0.41609413
585.041	0.41604062
585.242	0.4160091
585.442	0.41595611
585.643	0.41619149
585.844	0.41618775
586.045	0.41623399
586.246	0.41607666
586.447	0.41608806
586.647	0.41608378
586.848	0.41610362
587.049	0.41598246
587.25	0.4159471
587.45	0.41589824
587.651	0.41600677
587.852	0.41605682
588.053	0.41619038
588.253	0.4161396
588.454	0.41610262
588.655	0.41606964
588.855	0.41596495
589.056	0.41594841
589.256	0.41593287
589.457	0.41577976
589.658	0.41584526
589.858	0.41573702
590.059	0.41576504
590.259	0.41590468
590.46	0.41590838
590.66	0.41583828
590.861	0.41587048
591.061	0.41582775
591.262	0.4159261
591.462	0.4159699
591.662	0.41592781
591.863	0.41585575
592.063	0.41588262
592.264	0.41588846
592.464	0.41587786
592.664	0.41583748
592.865	0.41583485
593.065	0.41563489
593.265	0.41564394
593.465	0.41555096
593.666	0.41549697
593.866	0.41542284
594.066	0.41545298
594.266	0.41527222
594.467	0.41530729
594.667	0.41521229
594.867	0.41527737
595.067	0.41519256
595.267	0.41510882
595.467	0.41495431
595.668	0.41496474
595.868	0.41495606
596.068	0.41493651
596.268	0.41474627
596.468	0.41476363
596.668	0.41475659
596.868	0.41476581
597.068	0.41473152
597.268	0.41477642
597.468	0.4146852
597.668	0.41471858
597.868	0.41467096
598.068	0.41465351
598.268	0.41458735
598.467	0.41461301
598.667	0.41447878
598.867	0.41446413
599.067	0.41446833
599.267	0.41442933
599.467	0.4143496
599.667	0.41425227
599.866	0.41418136
600.066	0.41416434
600.266	0.41409908
600.466	0.41407319
600.665	0.41401288
600.865	0.41403581
601.065	0.41411071
601.264	0.41406109
601.464	0.41401956
601.664	0.41416712
601.863	0.41414691
602.063	0.41415121
602.263	0.41396075
602.462	0.41395173
602.662	0.41394109
602.861	0.4139311
603.061	0.41374888
603.26	0.41371042
603.46	0.41362336
603.659	0.41379972
603.859	0.41367924
604.058	0.41355802
604.258	0.41360569
604.457	0.41372047
604.657	0.41355851
604.856	0.41350888
605.056	0.41346625
605.255	0.4134836
605.454	0.41357334
605.654	0.41341949
605.853	0.41334294
606.052	0.41336728
606.252	0.41347079
606.451	0.41346065
606.65	0.41352535
606.849	0.41342148
607.049	0.41348813
607.248	0.41348654
607.447	0.41352423
607.646	0.41353695
607.845	0.41353025
608.045	0.41340044
608.244	0.41358092
608.443	0.41361171
608.642	0.41370399
608.841	0.41373387
609.04	0.41367045
609.239	0.41369727
609.438	0.41375817
609.637	0.41378219
609.836	0.4138305
610.035	0.41381681
610.234	0.41391181
610.433	0.41403485
610.632	0.41409851
610.831	0.41431687
611.03	0.41429366
611.229	0.41444207
611.428	0.41448704
611.627	0.41454788
611.826	0.41462266
612.025	0.41481747
612.224	0.41476588
612.422	0.41483536
612.621	0.41483554
612.82	0.41493957
613.019	0.41499271
613.218	0.41508098
613.416	0.41494999
613.615	0.41509836
613.814	0.41516999
614.012	0.4152333
614.211	0.41516033
614.41	0.4153489
614.608	0.41542811
614.807	0.4156597
615.006	0.41584632
615.204	0.41597614
615.403	0.4161696
615.602	0.41647622
615.8	0.41660579
615.999	0.41662964
616.197	0.41667911
616.396	0.41676066
616.594	0.41685709
616.793	0.41699849
616.991	0.41703262
617.19	0.41701606
617.388	0.4173116
617.586	0.41748243
617.785	0.41748603
617.983	0.41763983
618.182	0.41759239
618.38	0.41766112
618.578	0.41779723
618.777	0.41786609
618.975	0.41802201
619.173	0.41827422
619.372	0.41843127
619.57	0.41859354
619.768	0.41884634
619.966	0.41904333
620.165	0.41907019
620.363	0.41924138
620.561	0.41919406
620.759	0.41933797
620.957	0.4196194
621.155	0.41978183
621.354	0.41998507
621.552	0.42030325
621.75	0.42037571
621.948	0.42079883
622.146	0.42102112
622.344	0.42114367
622.542	0.42136997
622.74	0.42145155
622.938	0.42151138
623.136	0.42179082
623.334	0.42194248
623.532	0.4219221
623.73	0.42207732
623.928	0.42228647
624.126	0.42257346
624.324	0.42290927
624.522	0.42292734
624.719	0.42299341
624.917	0.42340796
625.115	0.42355079
625.313	0.42372756
625.511	0.42397467
625.708	0.42396456
625.906	0.42427123
626.104	0.42449195
626.302	0.42481482
626.499	0.42515774
626.697	0.42539549
626.895	0.42546038
627.093	0.42577114
627.29	0.42611579
627.488	0.42643754
627.686	0.42656397
627.883	0.42667533
628.081	0.42675489
628.278	0.42726265
628.476	0.42751571
628.673	0.42769654
628.871	0.42784185
629.068	0.42810145
629.266	0.42848071
629.463	0.42873299
629.661	0.42878147
629.858	0.42901195
630.056	0.42915714
630.253	0.42939358
630.451	0.42955845
630.648	0.4297332
630.845	0.429969
631.043	0.43016076
631.24	0.43049848
631.438	0.43078846
631.635	0.43103748
631.832	0.43116109
632.029	0.43140207
632.227	0.43167305
632.424	0.43198112
632.621	0.43214667
632.818	0.43237616
633.016	0.43266838
633.213	0.43296885
633.41	0.43330575
633.607	0.43353623
633.804	0.43377104
634.001	0.43400807
634.199	0.43430983
634.396	0.43458949
634.593	0.43480705
634.79	0.43502283
634.987	0.43534898
635.184	0.4355839
635.381	0.43592967
635.578	0.43623597
635.775	0.43642265
635.972	0.43678113
636.169	0.43704517
636.366	0.43724768
636.563	0.43752108
636.76	0.43765763
636.957	0.43792331
637.153	0.43811508
637.35	0.43846984
637.547	0.43873179
637.744	0.43894781
637.941	0.43924557
638.138	0.43959742
638.334	0.43975627
638.531	0.44012164
638.728	0.44029415
638.925	0.4406716
639.121	0.44103704
639.318	0.44131123
639.515	0.44147865
639.711	0.44188015
639.908	0.4420368
640.105	0.44224917
640.301	0.44239508
640.498	0.44256461
640.695	0.44284689
640.891	0.44312143
641.088	0.44328002
641.284	0.44359645
641.481	0.44387728
641.677	0.44410255
641.874	0.44429719
642.07	0.4445673
642.267	0.44501661
642.463	0.44526165
642.66	0.4456347
642.856	0.44587629
643.053	0.44606735
643.249	0.44645961
643.445	0.44668065
643.642	0.44686733
643.838	0.44721006
644.034	0.44745747
644.231	0.44774849
644.427	0.44811588
644.623	0.44841002
644.82	0.44868735
645.016	0.44889595
645.212	0.44906383
645.408	0.44928326
645.604	0.44968102
645.801	0.45000659
645.997	0.45031642
646.193	0.45053679
646.389	0.45089939
646.585	0.45123481
646.781	0.4515862
646.977	0.45180635
647.173	0.45198013
647.37	0.452154
647.566	0.45247389
647.762	0.45268507
647.958	0.45304558
648.154	0.45320042
648.35	0.45344276
648.546	0.45367345
648.742	0.45407605
648.937	0.45421329
649.133	0.45455827
649.329	0.45480021
649.525	0.45510073
649.721	0.45537528
649.917	0.4558347
650.113	0.45598036
650.309	0.45646186
650.504	0.45659056
650.7	0.45676064
650.896	0.45708446
651.092	0.45733083
651.287	0.45748431
651.483	0.45785502
651.679	0.45799476
651.875	0.45836331
652.07	0.45856669
652.266	0.45881076
652.462	0.45905478
652.657	0.45929985
652.853	0.45940914
653.048	0.45964637
653.244	0.45972985
653.44	0.46004248
653.635	0.46019426
653.831	0.46046772
654.026	0.46080596
654.222	0.46111494
654.417	0.46144148
654.613	0.46180299
654.808	0.46201604
655.004	0.46234704
655.199	0.46250506
655.394	0.46260879
655.59	0.46292167
655.785	0.46311832
655.98	0.46336331
656.176	0.4635878
656.371	0.46389913
656.566	0.4642117
656.762	0.46438272
656.957	0.46458174
657.152	0.46473068
657.348	0.46494305
657.543	0.46523756
657.738	0.46544743
657.933	0.46561168
658.128	0.46591539
658.324	0.4660438
658.519	0.4663559
658.714	0.46660392
658.909	0.46673002
659.104	0.46686544
659.299	0.46710457
659.494	0.46727692
659.689	0.46754614
659.884	0.4677082
660.079	0.46782172
660.274	0.46806874
660.469	0.46829773
660.664	0.46858292
660.859	0.46883614
661.054	0.4690505
661.249	0.46925217
661.444	0.46953759
661.639	0.46974204
661.834	0.46991104
662.029	0.47011187
662.224	0.4702871
662.418	0.47053338
662.613	0.47078572
662.808	0.47089478
663.003	0.47104291
663.198	0.47120937
663.392	0.47122174
663.587	0.47153811
663.782	0.47157014
663.977	0.47167917
664.171	0.47195792
664.366	0.47223363
664.561	0.47243487
664.755	0.47273083
664.95	0.47279464
665.144	0.47305284
665.339	0.47332899
665.534	0.47346929
665.728	0.47365755
665.923	0.47384091
666.117	0.47398208
666.312	0.47422335
666.506	0.47448958
666.701	0.47460054
666.895	0.4747593
667.09	0.47485259
667.284	0.47511223
667.479	0.4752954
667.673	0.47533366
667.867	0.47550735
668.062	0.47563008
668.256	0.47586509
668.45	0.47613754
668.645	0.4762094
668.839	0.47641081
669.033	0.47660268
669.228	0.47665875
669.422	0.47689895
669.616	0.47697711
669.81	0.47713036
670.004	0.47721718
670.199	0.47738638
670.393	0.47754693
670.587	0.47774023
670.781	0.4779547
670.975	0.47816533
671.169	0.47823393
671.363	0.47843377
671.558	0.47849525
671.752	0.47871842
671.946	0.47887544
672.14	0.47890722
672.334	0.47897013
672.528	0.47927414
672.722	0.47939781
672.916	0.47963113
673.11	0.47964732
673.304	0.47987486
673.497	0.47993895
673.691	0.48021661
673.885	0.48009478
674.079	0.48025955
674.273	0.48025364
674.467	0.48050304
674.661	0.48046711
674.854	0.4807326
675.048	0.48078254
675.242	0.4810421
675.436	0.48120018
675.629	0.48135327
675.823	0.48136104
676.017	0.48157742
676.211	0.4816034
676.404	0.48168095
676.598	0.48174343
676.792	0.48179627
676.985	0.48198736
677.179	0.48215168
677.372	0.48217871
677.566	0.48239742
677.76	0.48261112
677.953	0.48273632
678.147	0.48298154
678.34	0.48317768
678.534	0.48326245
678.727	0.48348492
678.921	0.48359791
679.114	0.48356142
679.307	0.48370423
679.501	0.48375527
679.694	0.48372401
679.888	0.4838436
680.081	0.48389495
680.274	0.48381938
680.468	0.48399942
680.661	0.48408866
680.854	0.48427592
681.048	0.48446865
681.241	0.4845755
681.434	0.48469381
681.627	0.48495126
681.821	0.48502267
682.014	0.48519359
682.207	0.48518035
682.4	0.48525809
682.593	0.48539381
682.786	0.48541972
682.98	0.48543022
683.173	0.48555761
683.366	0.48556515
683.559	0.48560657
683.752	0.48572054
683.945	0.48580997
684.138	0.48606765
684.331	0.48612616
684.524	0.48629433
684.717	0.4863744
684.91	0.48657993
685.103	0.48670035
685.296	0.4867222
685.489	0.48675194
685.682	0.48685469
685.874	0.4870357
686.067	0.48716758
686.26	0.487196
686.453	0.4872112
686.646	0.48728163
686.839	0.48738239
687.031	0.48747431
687.224	0.48725949
687.417	0.48731423
687.61	0.48732722
687.802	0.48731296
687.995	0.48743288
688.188	0.48751216
688.38	0.4875949
688.573	0.48778721
688.766	0.48787635
688.958	0.48800111
689.151	0.48806156
689.343	0.48815372
689.536	0.48808898
689.729	0.48810504
689.921	0.48813636
690.114	0.48806083
690.306	0.48809275
690.499	0.48819978
690.691	0.48828024
690.884	0.48833451
691.076	0.48850743
691.268	0.48856328
691.461	0.48864089
691.653	0.48873124
691.846	0.48876886
692.038	0.4887196
692.23	0.48870625
692.423	0.48865621
692.615	0.48867716
692.807	0.4887604
692.999	0.48881796
693.192	0.48886942
693.384	0.4889749
693.576	0.48899057
693.768	0.48913929
693.961	0.48911809
694.153	0.48920585
694.345	0.48912071
694.537	0.48916714
694.729	0.48919636
694.921	0.48926916
695.113	0.48931785
695.305	0.48949587
695.498	0.48947114
695.69	0.48967811
695.882	0.48967805
696.074	0.48978377
696.266	0.48984086
696.458	0.4897758
696.65	0.48980046
696.842	0.48991797
697.033	0.48991222
697.225	0.48993755
697.417	0.48998371
697.609	0.49002974
697.801	0.49012006
697.993	0.49021503
698.185	0.49019639
698.376	0.49026468
698.568	0.49034226
698.76	0.49035398
698.952	0.49037882
699.144	0.49036693
699.335	0.49031896
699.527	0.49033078
699.719	0.49038172
699.91	0.49051003
700.102	0.4905496
700.294	0.49065139
700.485	0.4907784
700.677	0.49077884
700.869	0.49087996
701.06	0.49089013
701.252	0.49082744
701.443	0.49081747
701.635	0.49089721
701.826	0.49095475
702.018	0.49110979
702.209	0.49110674
702.401	0.49116955
702.592	0.49134649
702.784	0.49145007
702.975	0.49147797
703.166	0.49146879
703.358	0.49139749
703.549	0.49155069
703.741	0.49157285
703.932	0.49152857
704.123	0.49155183
704.315	0.49159857
704.506	0.49176871
704.697	0.4919071
704.888	0.49205326
705.08	0.49209952
705.271	0.49221839
705.462	0.49220814
705.653	0.49225086
705.844	0.49212523
706.035	0.49209842
706.227	0.49195121
706.418	0.49193532
706.609	0.49195433
706.8	0.4921521
706.991	0.49221469
707.182	0.49232572
707.373	0.49237031
707.564	0.49254859
707.755	0.49258321
707.946	0.49258905
708.137	0.49243272
708.328	0.49242223
708.519	0.49246595
708.71	0.49254833
708.901	0.49252541
709.092	0.49268662
709.283	0.4927776
709.473	0.49296029
709.664	0.49310035
709.855	0.49313939
710.046	0.49323743
710.237	0.4932308
710.427	0.49316383
710.618	0.49323675
710.809	0.49325545
711	0.49336537
711.19	0.49338045
711.381	0.49352339
711.572	0.49358211
711.762	0.49378485
711.953	0.49374471
712.144	0.49384145
712.334	0.49376894
712.525	0.49394859
712.715	0.49389604
712.906	0.49394229
713.097	0.49386512
713.287	0.49400791
713.478	0.49400229
713.668	0.49412623
713.859	0.49407719
714.049	0.49412573
714.239	0.49429528
714.43	0.49439722
714.62	0.49442763
714.811	0.4944838
715.001	0.49451654
715.191	0.49458331
715.382	0.49458543
715.572	0.49462941
715.762	0.49469244
715.953	0.49483378
716.143	0.49499671
716.333	0.49501116
716.523	0.49517145
716.714	0.49539244
716.904	0.49547617
717.094	0.49559198
717.284	0.49556159
717.474	0.49559254
717.664	0.49573149
717.855	0.49568139
718.045	0.49557951
718.235	0.49558776
718.425	0.49569157
718.615	0.49579882
718.805	0.49588133
718.995	0.49605282
719.185	0.49629046
719.375	0.49654122
719.565	0.49675493
719.755	0.4968081
719.945	0.49685182
720.135	0.49698403
720.325	0.49704375
720.515	0.49714458
720.704	0.49721818
720.894	0.49728135
721.084	0.49740526
721.274	0.49760435
721.464	0.49773505
721.654	0.49784948
721.843	0.49784873
722.033	0.49791356
722.223	0.49791142
722.413	0.49801295
722.602	0.49804574
722.792	0.49807952
722.982	0.49808877
723.171	0.49819572
723.361	0.49825566
723.55	0.49846862
723.74	0.49853761
723.93	0.49862123
724.119	0.49877924
724.309	0.4989488
724.498	0.49903842
724.688	0.49913328
724.877	0.49919288
725.067	0.49928055
725.256	0.49943462
725.446	0.4994677
725.635	0.49942201
725.825	0.49950349
726.014	0.49963704
726.203	0.49968737
726.393	0.49969897
726.582	0.49973327
726.771	0.49979606
726.961	0.49988987
727.15	0.49989716
727.339	0.49988659
727.529	0.49996951
727.718	0.49999745
727.907	0.49996933
728.096	0.50000568
728.286	0.50001859
728.475	0.50014188
728.664	0.50025039
728.853	0.50023895
729.042	0.50028902
729.231	0.50044237
729.42	0.50048705
729.609	0.5005742
729.799	0.50050588
729.988	0.50061058
730.177	0.50058334
730.366	0.50067905
730.555	0.5006408
730.744	0.5006774
730.933	0.50083635
731.122	0.50099355
731.31	0.50098996
731.499	0.50114825
731.688	0.50125578
731.877	0.50141216
732.066	0.5015265
732.255	0.50146751
732.444	0.50153075
732.632	0.50160537
732.821	0.50166819
733.01	0.50177009
733.199	0.50166563
733.388	0.5016357
733.576	0.50170685
733.765	0.50170231
733.954	0.50176203
734.142	0.5017989
734.331	0.50181208
734.52	0.50198129
734.708	0.50209499
734.897	0.50218101
735.086	0.50229141
735.274	0.50236086
735.463	0.5024402
735.651	0.50244901
735.84	0.50251981
736.028	0.50262458
736.217	0.50280388
736.405	0.50290992
736.594	0.50295789
736.782	0.50307557
736.971	0.50321801
737.159	0.50331347
737.347	0.50341952
737.536	0.50342424
737.724	0.50343126
737.912	0.50342125
738.101	0.5033782
738.289	0.50344074
738.477	0.5035223
738.666	0.50349639
738.854	0.50353416
739.042	0.50362665
739.23	0.50369467
739.418	0.50379833
739.607	0.50373194
739.795	0.50372475
739.983	0.50392462
740.171	0.50400869
740.359	0.5040546
740.547	0.50415448
740.735	0.50427697
740.923	0.50447989
741.112	0.50465256
741.3	0.50467357
741.488	0.50473328
741.676	0.50498195
741.864	0.50509846
742.052	0.50523694
742.239	0.50525997
742.427	0.50529797
742.615	0.50531086
742.803	0.505459
742.991	0.50538294
743.179	0.50544879
743.367	0.5054313
743.555	0.50560043
743.742	0.50567804
743.93	0.50583585
744.118	0.50585794
744.306	0.50601891
744.494	0.50611581
744.681	0.50620644
744.869	0.50627307
745.057	0.50639209
745.244	0.50649455
745.432	0.50663785
745.62	0.50672905
745.807	0.50686832
745.995	0.50699374
746.182	0.50702381
746.37	0.50711436
746.558	0.50714189
746.745	0.5071388
746.933	0.50716077
747.12	0.50714952
747.308	0.50728736
747.495	0.50729331
747.683	0.50732553
747.87	0.5073821
748.057	0.50750402
748.245	0.50756878
748.432	0.50769948
748.62	0.50767754
748.807	0.50780915
748.994	0.50786596
749.182	0.50801251
749.369	0.50803553
749.556	0.50819211
749.743	0.50818527
749.931	0.508259
750.118	0.50841683
750.305	0.50847629
750.492	0.50838033
750.68	0.50854362
750.867	0.50862178
751.054	0.50879754
751.241	0.50883732
751.428	0.50888371
751.615	0.50900032
751.802	0.50922548
751.989	0.50925581
752.176	0.50944577
752.363	0.50955893
752.55	0.5097232
752.737	0.50978239
752.924	0.50986349
753.111	0.50996894
753.298	0.51008893
753.485	0.51000718
753.672	0.50991789
753.859	0.51007214
754.046	0.51021308
754.233	0.51028775
754.42	0.51038742
754.606	0.51047508
754.793	0.51058771
754.98	0.51083377
755.167	0.51077821
755.353	0.51086886
755.54	0.51098863
755.727	0.51105012
755.914	0.51110895
756.1	0.51117822
756.287	0.51113108
756.474	0.51117423
756.66	0.51121464
756.847	0.5113132
757.033	0.51126157
757.22	0.51126724
757.407	0.51140382
757.593	0.51166609
757.78	0.51185466
757.966	0.51197345
758.153	0.51207617
758.339	0.51220624
758.526	0.51231913
758.712	0.51222386
758.898	0.51221526
759.085	0.5121497
759.271	0.51211482
759.458	0.51210724
759.644	0.51222138
759.83	0.51223552
760.017	0.51243022
760.203	0.51248925
760.389	0.5126175
760.576	0.51277984
760.762	0.51286572
760.948	0.51282874
761.134	0.51292743
761.32	0.51292665
761.507	0.51291326
761.693	0.51309018
761.879	0.51315525
762.065	0.51324692
762.251	0.51343096
762.437	0.51356583
762.623	0.51366258
762.809	0.51379127
762.995	0.51384142
763.181	0.51382106
763.367	0.51393028
763.553	0.51395094
763.739	0.51405855
763.925	0.51413719
764.111	0.51418201
764.297	0.51422274
764.483	0.51423427
764.669	0.51414542
764.855	0.51415387
765.041	0.51413413
765.227	0.51409146
765.412	0.51418222
765.598	0.51415294
765.784	0.51426499
765.97	0.51439864
766.156	0.5145522
766.341	0.51457402
766.527	0.51464656
766.713	0.51469311
766.898	0.51478512
767.084	0.51484193
767.27	0.51476539
767.455	0.51471112
767.641	0.51477784
767.827	0.51491998
768.012	0.51494847
768.198	0.51502448
768.383	0.51513427
768.569	0.51526937
768.754	0.51544676
768.94	0.51547637
769.125	0.51542753
769.311	0.51538442
769.496	0.51536816
769.682	0.51535089
769.867	0.51540461
770.052	0.51535345
770.238	0.515372
770.423	0.51542488
770.608	0.51557926
770.794	0.51562997
770.979	0.51557828
771.164	0.51561868
771.35	0.51566454
771.535	0.51573203
771.72	0.5157509
771.905	0.51583536
772.09	0.51581073
772.276	0.51590351
772.461	0.51582797
772.646	0.51578242
772.831	0.51571523
773.016	0.51577629
773.201	0.51565325
773.386	0.5157817
773.571	0.5157854
773.756	0.51581366
773.941	0.51574506
774.126	0.51588957
774.311	0.51581389
774.496	0.51590737
774.681	0.51595635
774.866	0.51604858
775.051	0.51605856
775.236	0.51617354
775.421	0.51606137
775.606	0.51603905
775.791	0.51589177
775.976	0.51578543
776.16	0.51571893
776.345	0.51573072
776.53	0.51579436
776.715	0.5158464
776.899	0.51587667
777.084	0.51596118
777.269	0.51601372
777.454	0.51606232
777.638	0.51614114
777.823	0.51608665
778.008	0.5161066
778.192	0.51614543
778.377	0.51615399
778.561	0.51615289
778.746	0.51616192
778.931	0.51615809
779.115	0.51624446
779.3	0.51635878
779.484	0.51633784
779.669	0.51629766
779.853	0.51622052
780.037	0.51620749
780.222	0.51616541
780.406	0.51597249
780.591	0.51585315
780.775	0.51583079
780.959	0.51586347
781.144	0.51580279
781.328	0.51567234
781.512	0.51555049
781.697	0.51550168
781.881	0.51534851
782.065	0.51536513
782.249	0.51525759
782.434	0.51535319
782.618	0.51530576
782.802	0.51539385
782.986	0.5154978
783.17	0.51560621
783.354	0.51558639
783.539	0.51555637
783.723	0.51536822
783.907	0.51538708
784.091	0.51523927
784.275	0.51516825
784.459	0.51502506
784.643	0.51503558
784.827	0.51500991
785.011	0.51498128
785.195	0.51506119
785.379	0.5151851
785.563	0.51514029
785.747	0.51519085
785.93	0.51530117
786.114	0.5152596
786.298	0.51532165
786.482	0.51509342
786.666	0.51498059
786.85	0.51490838
787.033	0.51479473
787.217	0.51454943
787.401	0.5145672
787.585	0.51442712
787.768	0.51445546
787.952	0.51428085
788.136	0.51424305
788.319	0.51413819
788.503	0.51397121
788.687	0.51385609
788.87	0.513811
789.054	0.51370188
789.237	0.51373602
789.421	0.51366909
789.605	0.51359206
789.788	0.51355503
789.972	0.51346429
790.155	0.51326584
790.338	0.51316357
790.522	0.51305044
790.705	0.51291375
790.889	0.51279702
791.072	0.51268984
791.256	0.51259649
791.439	0.51258274
791.622	0.51266518
791.806	0.51272461
791.989	0.51266469
792.172	0.51271009
792.355	0.51273024
792.539	0.5127324
792.722	0.51261095
792.905	0.51223978
793.088	0.51192459
793.271	0.51185077
793.455	0.51171855
793.638	0.51161673
793.821	0.51147164
794.004	0.51137842
794.187	0.51148384
794.37	0.51151095
794.553	0.51154254
794.736	0.51142061
794.919	0.51129048
795.102	0.51121411
795.285	0.51121993
795.468	0.51105925
795.651	0.51098012
795.834	0.51084544
796.017	0.51082284
796.2	0.51068646
796.383	0.5104633
796.566	0.51044523
796.749	0.51036663
796.931	0.51015662
797.114	0.5099825
797.297	0.5098367
797.48	0.50970263
797.663	0.50970361
797.845	0.50955617
798.028	0.50956331
798.211	0.50952346
798.393	0.50937333
798.576	0.50925442
798.759	0.50912438
798.941	0.50891252
799.124	0.50866817
799.307	0.50851396
799.489	0.50847058
799.672	0.50835884
799.854	0.50820476
800.037	0.50810315
800.219	0.50805104
800.402	0.50805958
800.584	0.50776094
800.767	0.50755071
800.949	0.50740772
801.132	0.50740115
801.314	0.50726061
801.496	0.50715077
801.679	0.50697515
801.861	0.50693685
802.043	0.506649
802.226	0.50648357
802.408	0.50620032
802.59	0.50606926
802.772	0.50595225
802.955	0.50579467
803.137	0.50561208
803.319	0.50561783
803.501	0.50541679
803.684	0.50537058
803.866	0.50518931
804.048	0.50494997
804.23	0.50491623
804.412	0.50481747
804.594	0.50459844
804.776	0.50462522
804.958	0.50435931
805.14	0.50423659
805.322	0.50410891
805.504	0.50385924
805.686	0.50361984
805.868	0.50351998
806.05	0.50328978
806.232	0.5033055
806.414	0.50332691
806.596	0.50326446
806.778	0.50306788
806.96	0.50311545
807.141	0.50286585
807.323	0.50278601
807.505	0.50241111
807.687	0.50209972
807.869	0.50185945
808.05	0.501632
808.232	0.50130271
808.414	0.501206
808.595	0.50095319
808.777	0.50079519
808.959	0.50067392
809.14	0.50060709
809.322	0.50054964
809.504	0.50040551
809.685	0.50037241
809.867	0.50021596
810.048	0.5000747
810.23	0.49990213
810.411	0.4996334
810.593	0.4993345
810.774	0.49909371
810.956	0.49878624
811.137	0.49857282
811.319	0.49850865
811.5	0.49825827
811.681	0.497986
811.863	0.49782122
812.044	0.49757655
812.225	0.49740631
812.407	0.4972334
812.588	0.49690715
812.769	0.49667125
812.951	0.49645783
813.132	0.49633965
813.313	0.49633988
813.494	0.49619019
813.675	0.49594791
813.857	0.49593123
814.038	0.49592095
814.219	0.49581081
814.4	0.49552369
814.581	0.49539634
814.762	0.49507937
814.943	0.49487669
815.124	0.49451465
815.305	0.4941004
815.486	0.49389212
815.667	0.49376661
815.848	0.4933877
816.029	0.49314684
816.21	0.49294345
816.391	0.49287092
816.572	0.49273728
816.753	0.49263795
816.934	0.49235879
817.115	0.4922078
817.295	0.49206905
817.476	0.49169449
817.657	0.49142312
817.838	0.49128425
818.019	0.49087463
818.199	0.49059142
818.38	0.49025927
818.561	0.49003115
818.741	0.48994024
818.922	0.4896663
819.103	0.48944841
819.283	0.48944577
819.464	0.4893611
819.645	0.48921449
819.825	0.48902683
820.006	0.48883261
820.186	0.4886027
820.367	0.48835216
820.547	0.48785549
820.728	0.48750162
820.908	0.48724571
821.089	0.48702528
821.269	0.486824
821.45	0.48660126
821.63	0.4862684
821.81	0.48614375
821.991	0.48607883
822.171	0.48578417
822.351	0.48561231
822.532	0.48536754
822.712	0.48512654
822.892	0.48499804
823.072	0.48483274
823.253	0.48450583
823.433	0.48437064
823.613	0.48409283
823.793	0.48379599
823.973	0.48355668
824.154	0.48319295
824.334	0.48301204
824.514	0.48276653
824.694	0.48246586
824.874	0.48201565
825.054	0.4818729
825.234	0.48164757
825.414	0.48133678
825.594	0.48095198
825.774	0.48074123
825.954	0.48058347
826.134	0.48051429
826.314	0.48015362
826.494	0.47992874
826.674	0.47957812
826.854	0.47921552
827.033	0.47877776
827.213	0.47852875
827.393	0.47808776
827.573	0.47787343
827.753	0.47747937
827.932	0.47743592
828.112	0.4772901
828.292	0.47720344
828.472	0.47686355
828.651	0.47687043
828.831	0.47655858
829.011	0.47648533
829.19	0.47617244
829.37	0.47591866
829.549	0.47563005
829.729	0.4752078
829.909	0.47476222
830.088	0.47451051
830.268	0.47392809
830.447	0.47373388
830.627	0.47351369
830.806	0.47320991
830.986	0.47293116
831.165	0.47277645
831.344	0.4725079
831.524	0.47244256
831.703	0.47210398
831.883	0.47164573
832.062	0.47140006
832.241	0.47114956
832.421	0.47076471
832.6	0.47057715
832.779	0.47031533
832.958	0.47006546
833.138	0.46980259
833.317	0.46962296
833.496	0.46941166
833.675	0.46922695
833.854	0.46894418
834.034	0.46863639
834.213	0.46834442
834.392	0.46830204
834.571	0.46789124
834.75	0.46772458
834.929	0.46732774
835.108	0.46693247
835.287	0.46666498
835.466	0.46628857
835.645	0.46595879
835.824	0.46563556
836.003	0.46530749
836.182	0.46509872
836.361	0.46489417
836.54	0.46454151
836.719	0.46436896
836.897	0.46396508
837.076	0.46361755
837.255	0.46328797
837.434	0.46298072
837.613	0.46265835
837.791	0.46235801
837.97	0.46205367
838.149	0.46162154
838.328	0.46137491
838.506	0.4610274
838.685	0.46077746
838.864	0.46054261
839.042	0.46026943
839.221	0.46013639
839.4	0.46006713
839.578	0.4597141
839.757	0.4592634
839.935	0.45884054
840.114	0.45853976
840.292	0.4582541
840.471	0.45781285
840.649	0.45731421
840.828	0.45710401
841.006	0.45696611
841.185	0.4565623
841.363	0.45635787
841.541	0.45599666
841.72	0.45580286
841.898	0.45566913
842.076	0.45536284
842.255	0.4550598
842.433	0.45492008
842.611	0.4543829
842.789	0.45409152
842.968	0.45369616
843.146	0.45327449
843.324	0.45299343
843.502	0.45271326
843.68	0.45244823
843.859	0.4521842
844.037	0.45183517
844.215	0.45146639
844.393	0.45119171
844.571	0.45074512
844.749	0.45051589
844.927	0.45010383
845.105	0.44969464
845.283	0.44945291
845.461	0.44910168
845.639	0.44885687
845.817	0.44855428
845.995	0.44833142
846.173	0.44814655
846.351	0.44782597
846.529	0.44747976
846.706	0.44707331
846.884	0.44669964
847.062	0.44622204
847.24	0.44564035
847.418	0.44510241
847.595	0.44480983
847.773	0.44445203
847.951	0.44412127
848.129	0.44368237
848.306	0.44355278
848.484	0.44334734
848.662	0.44321262
848.839	0.44305547
849.017	0.4429174
849.194	0.44262362
849.372	0.44240121
849.549	0.44199611
849.727	0.44161904
849.905	0.44106814
850.082	0.44059129
850.26	0.44007384
850.437	0.43968492
850.614	0.43937674
850.792	0.43910649
850.969	0.43891006
851.147	0.43882315
851.324	0.43854036
851.501	0.43820799
851.679	0.43799733
851.856	0.43759694
852.033	0.43736367
852.211	0.43693195
852.388	0.43641718
852.565	0.43610599
852.742	0.43589636
852.92	0.43561173
853.097	0.43548097
853.274	0.43513514
853.451	0.43474986
853.628	0.4343376
853.805	0.43407431
853.982	0.43358964
854.159	0.43308208
854.336	0.43258262
854.514	0.43217251
854.691	0.4318551
854.868	0.43169911
855.045	0.43125229
855.221	0.43112829
855.398	0.43091211
855.575	0.43059653
855.752	0.43038909
855.929	0.43020969
856.106	0.42979215
856.283	0.4294936
856.46	0.42909933
856.637	0.42889705
856.813	0.4286335
856.99	0.42836197
857.167	0.42800143
857.344	0.42764925
857.52	0.4273923
857.697	0.42680563
857.874	0.42622439
858.05	0.4257382
858.227	0.42513723
858.404	0.4247397
858.58	0.42461325
858.757	0.42421407
858.933	0.42418659
859.11	0.42401972
859.287	0.42372913
859.463	0.42357738
859.64	0.4232531
859.816	0.42278644
859.993	0.42246482
860.169	0.42217364
860.345	0.42180379
860.522	0.42163713
860.698	0.42127987
860.875	0.42095311
861.051	0.42075982
861.227	0.42026108
861.404	0.41984882
861.58	0.41960382
861.756	0.41912601
861.932	0.41884025
862.109	0.418328
862.285	0.41804193
862.461	0.41792194
862.637	0.41758694
862.813	0.417199
862.99	0.41686934
863.166	0.41639755
863.342	0.41641322
863.518	0.41572778
863.694	0.41543379
863.87	0.41499336
864.046	0.41456519
864.222	0.41414989
864.398	0.41389148
864.574	0.41317625
864.75	0.41294551
864.926	0.41248857
865.102	0.4122414
865.278	0.41189413
865.454	0.41158506
865.63	0.41101123
865.805	0.41071105
865.981	0.41048811
866.157	0.41028474
866.333	0.40962232
866.509	0.40939565
866.684	0.40913612
866.86	0.40923179
867.036	0.40897402
867.212	0.4086247
867.387	0.40819316
867.563	0.40820936
867.739	0.40784939
867.914	0.40756971
868.09	0.40696626
868.265	0.40652625
868.441	0.40608009
868.617	0.40574529
868.792	0.40534308
868.968	0.40490021
869.143	0.40462968
869.319	0.40444714
869.494	0.40412258
869.67	0.40388938
869.845	0.40356088
870.02	0.40319661
870.196	0.40304006
870.371	0.40259777
870.546	0.40213645
870.722	0.40195421
870.897	0.40160036
871.072	0.40122029
871.248	0.40092058
871.423	0.40037562
871.598	0.40009563
871.773	0.39969337
871.949	0.39925099
872.124	0.39908342
872.299	0.39871326
872.474	0.39838496
872.649	0.39813392
872.824	0.39780768
872.999	0.39757652
873.174	0.39732861
873.349	0.39694748
873.524	0.39673272
873.699	0.39646067
873.874	0.39620963
874.049	0.39583641
874.224	0.39553936
874.399	0.39518779
874.574	0.39484589
874.749	0.39444122
874.924	0.39403862
875.099	0.39361372
875.274	0.39324149
875.449	0.39289738
875.623	0.39244758
875.798	0.39190975
875.973	0.39156599
876.148	0.39096206
876.322	0.39064269
876.497	0.39032604
876.672	0.39009277
876.846	0.38988581
877.021	0.38957414
877.196	0.38904701
877.37	0.38881311
877.545	0.38858546
877.72	0.38813593
877.894	0.38774036
878.069	0.38735927
878.243	0.38692738
878.418	0.38685323
878.592	0.38662846
878.767	0.38608324
878.941	0.38600834
879.116	0.38548208
879.29	0.385054
879.464	0.38471456
879.639	0.38420407
879.813	0.38400297
879.987	0.3838329
880.162	0.38326827
880.336	0.38314589
880.51	0.38308801
880.685	0.38305422
880.859	0.38283581
881.033	0.38253305
881.207	0.38213404
881.381	0.38198548
881.556	0.38158673
881.73	0.38089948
881.904	0.38054989
882.078	0.38016041
882.252	0.37976409
882.426	0.37938967
882.6	0.37893513
882.774	0.37860007
882.948	0.37842058
883.122	0.37791728
883.296	0.3776391
883.47	0.37733225
883.644	0.37716436
883.818	0.37654228
883.992	0.37634989
884.166	0.37624449
884.34	0.37610281
884.514	0.37601671
884.687	0.37576983
884.861	0.3753067
885.035	0.37535406
885.209	0.3751159
885.382	0.37483154
885.556	0.37447034
885.73	0.37405269
885.904	0.37372342
886.077	0.37336746
886.251	0.37300501
886.425	0.37247755
886.598	0.37216143
886.772	0.37156584
886.945	0.37099134
887.119	0.37039257
887.292	0.37007436
887.466	0.37000079
887.64	0.36963636
887.813	0.36921738
887.986	0.36914371
888.16	0.36925242
888.333	0.36897347
888.507	0.36887194
888.68	0.36834546
888.854	0.36809978
889.027	0.36771288
889.2	0.36751922
889.374	0.36686849
889.547	0.36691044
889.72	0.36661349
889.893	0.3662232
890.067	0.3658597
890.24	0.3655558
890.413	0.36513174
890.586	0.36475249
890.759	0.36421497
890.933	0.36375948
891.106	0.36352012
891.279	0.36330866
891.452	0.36297747
891.625	0.3626597
891.798	0.3624661
891.971	0.36225508
892.144	0.36187087
892.317	0.36176449
892.49	0.36133962
892.663	0.3611255
892.836	0.36107049
893.009	0.36093444
893.182	0.36045384
893.355	0.36052932
893.527	0.36009277
893.7	0.36017516
893.873	0.35980235
894.046	0.35926474
894.219	0.35897075
894.391	0.35885249
894.564	0.35840905
894.737	0.35806352
894.91	0.35752925
895.082	0.35732534
895.255	0.3570698
895.428	0.35659352
895.6	0.35616883
895.773	0.35572866
895.945	0.35539559
896.118	0.35514549
896.291	0.3550703
896.463	0.35486945
896.636	0.35484215
896.808	0.35473182
896.981	0.35466763
897.153	0.35441709
897.326	0.35415179
897.498	0.35353883
897.67	0.35320897
897.843	0.35281747
898.015	0.35266809
898.187	0.35238277
898.36	0.3518945
898.532	0.35146925
898.704	0.35127845
898.877	0.35083664
899.049	0.35062992
899.221	0.35026496
899.393	0.3500107
899.566	0.34999122
899.738	0.34996508
899.91	0.3498094
900.082	0.34965772
900.254	0.34943302
900.426	0.34906737
900.598	0.34869011
900.77	0.34823992
900.942	0.34779523
901.114	0.34731924
901.286	0.34690347
901.458	0.34630561
901.63	0.3458302
901.802	0.34555413
901.974	0.34540602
902.146	0.34508675
902.318	0.34483215
902.49	0.34471317
902.662	0.34442056
902.834	0.34409961
903.005	0.34387657
903.177	0.34375161
903.349	0.34362185
903.521	0.34335523
903.693	0.34303109
903.864	0.34293548
904.036	0.34294922
904.208	0.34230644
904.379	0.34182308
904.551	0.34154425
904.723	0.34139801
904.894	0.34101174
905.066	0.34060659
905.237	0.34038584
905.409	0.34037589
905.58	0.34027483
905.752	0.33990074
905.923	0.33952316
906.095	0.33928028
906.266	0.3390019
906.438	0.33870349
906.609	0.33840861
906.78	0.33800974
906.952	0.33766546
907.123	0.33727898
907.295	0.33723981
907.466	0.33721386
907.637	0.33693213
907.808	0.336576
907.98	0.33621363
908.151	0.33618993
908.322	0.33621437
908.493	0.3357312
908.665	0.3353818
908.836	0.33499602
909.007	0.33495606
909.178	0.33468284
909.349	0.33429827
909.52	0.33402664
909.691	0.33377042
909.862	0.33353683
910.033	0.33320136
910.204	0.33282546
910.375	0.33278588
910.546	0.33249661
910.717	0.3319403
910.888	0.33182622
911.059	0.33151014
911.23	0.33132122
911.401	0.3309218
911.572	0.3303642
911.742	0.33002155
911.913	0.32998754
912.084	0.329426
912.255	0.32910499
912.426	0.32886794
912.596	0.32863464
912.767	0.32859834
912.938	0.32847843
913.108	0.32819164
913.279	0.32807633
913.45	0.32788529
913.62	0.32753938
913.791	0.32749243
913.962	0.32725852
914.132	0.32705094
914.303	0.3266714
914.473	0.32644643
914.644	0.32610266
914.814	0.32597033
914.985	0.3256386
915.155	0.32549531
915.326	0.32499765
915.496	0.32477849
915.666	0.32458589
915.837	0.32468706
916.007	0.32418955
916.177	0.32383565
916.348	0.32349772
916.518	0.32352053
916.688	0.32330125
916.858	0.32308703
917.029	0.32236342
917.199	0.32234164
917.369	0.32245567
917.539	0.32237366
917.709	0.32188058
917.88	0.32154022
918.05	0.32098856
918.22	0.32098408
918.39	0.32075506
918.56	0.32039162
918.73	0.32014784
918.9	0.32006099
919.07	0.31987245
919.24	0.32004373
919.41	0.32009167
919.58	0.31972255
919.75	0.31949448
919.92	0.31886201
920.09	0.31872655
920.26	0.31863491
920.429	0.31836106
920.599	0.31784351
920.769	0.31767293
920.939	0.31725452
921.109	0.31722714
921.278	0.31684617
921.448	0.31644918
921.618	0.31629549
921.787	0.31598196
921.957	0.31578477
922.127	0.31523832
922.296	0.31502947
922.466	0.3145156
922.636	0.31452474
922.805	0.31423566
922.975	0.31403793
923.144	0.31382156
923.314	0.31378226
923.483	0.31352715
923.653	0.31361624
923.822	0.31321711
923.992	0.31285363
924.161	0.31258941
924.331	0.31235127
924.5	0.31210647
924.669	0.31167485
924.839	0.31144378
925.008	0.31117158
925.177	0.31073708
925.347	0.31050248
925.516	0.31048988
925.685	0.31039933
925.854	0.3104023
926.023	0.3103223
926.193	0.31027798
926.362	0.31015313
926.531	0.31001435
926.7	0.30944723
926.869	0.30942504
927.038	0.30873417
927.207	0.30824044
927.376	0.30769929
927.545	0.30735408
927.715	0.30710584
927.884	0.30682207
928.052	0.30653406
928.221	0.30639703
928.39	0.30611498
928.559	0.30596179
928.728	0.30587273
928.897	0.30594373
929.066	0.30604398
929.235	0.30548027
929.404	0.30537789
929.572	0.30517438
929.741	0.30512837
929.91	0.30495452
930.079	0.30434442
930.247	0.30387176
930.416	0.3041167
930.585	0.30405332
930.753	0.30397443
930.922	0.30373752
931.091	0.30385367
931.259	0.30364344
931.428	0.30378483
931.596	0.30358486
931.765	0.30366281
931.934	0.30374387
932.102	0.30306868
932.27	0.30256022
932.439	0.30225632
932.607	0.30183833
932.776	0.301759
932.944	0.30140904
933.113	0.30114437
933.281	0.30123654
933.449	0.30060068
933.618	0.30013883
933.786	0.29996902
933.954	0.29930145
934.123	0.29897591
934.291	0.29859474
934.459	0.29839972
934.627	0.29875238
934.795	0.29914835
934.964	0.29926522
935.132	0.29888616
935.3	0.29847631
935.468	0.2982478
935.636	0.29859152
935.804	0.29813236
935.972	0.29761069
936.14	0.29680148
936.308	0.2967125
936.476	0.29673506
936.644	0.29634024
936.812	0.295439
936.98	0.29533895
937.148	0.29487641
937.316	0.29388466
937.484	0.29455671
937.652	0.29347406
937.82	0.29387244
937.987	0.29347967
938.155	0.29332853
938.323	0.29347973
938.491	0.29370236
938.658	0.29384688
938.826	0.29430802
938.994	0.29346902
939.162	0.29401082
939.329	0.2941935
939.497	0.29559928
939.665	0.29588655
939.832	0.29562086
940	0.29668474
940.167	0.2969579
940.335	0.29575759
940.502	0.2948952
940.67	0.29372449
940.837	0.29554216
941.005	0.29425217
941.172	0.29315109
941.34	0.29406656
941.507	0.29649637
941.674	0.29878412
941.842	0.2985948
942.009	0.29927459
942.177	0.29810136
942.344	0.30024751
942.511	0.30028496
942.678	0.30152832
942.846	0.30037674
943.013	0.30082039
943.18	0.29898882
943.347	0.30198196
943.514	0.30074254
943.682	0.30186346
943.849	0.2988566
944.016	0.2970332
944.183	0.29732769
944.35	0.29786599
944.517	0.29840697
944.684	0.29928981
944.851	0.29286827
945.018	0.29207084
945.185	0.29195667
945.352	0.2916825
945.519	0.29066539
945.686	0.28870659
945.853	0.29186023
946.02	0.29343938
946.187	0.29460449
946.353	0.29648417
946.52	0.29608735
946.687	0.29660197
946.854	0.29761187
947.021	0.29267514
947.187	0.29374834
947.354	0.29110965
947.521	0.29019535
947.687	0.28868341
947.854	0.28805917
948.021	0.28571691
948.187	0.28598295
948.354	0.28480884
948.52	0.28560538
948.687	0.28709445
948.854	0.28839729
949.02	0.28631298
949.187	0.28714561
949.353	0.28692751
949.52	0.28643828
949.686	0.28669712
949.852	0.28606074
950.019	0.28698193
950.185	0.2879839
950.352	0.28643715
950.518	0.28512937
950.684	0.28613221
950.851	0.2862452
951.017	0.28458566
951.183	0.28266302
951.349	0.28212265
951.516	0.28115852
951.682	0.28131815
951.848	0.28006579
952.014	0.27898796
952.18	0.27954057
952.346	0.27915724
952.512	0.27903026
952.679	0.28018459
952.845	0.27984835
953.011	0.28023763
953.177	0.28033823
953.343	0.27831666
953.509	0.27949406
953.675	0.27978492
953.841	0.2787623
954.007	0.27947136
954.172	0.28011098
954.338	0.27894216
954.504	0.27816085
954.67	0.2754643
954.836	0.2753355
955.002	0.27583383
955.167	0.2746885
955.333	0.27233939
955.499	0.27306571
955.665	0.2730841
955.83	0.27394143
955.996	0.27318471
956.162	0.27243741
956.327	0.2718834
956.493	0.27245165
956.659	0.2728266
956.824	0.27277503
956.99	0.2725793
957.155	0.27261137
957.321	0.27275795
957.486	0.27286095
957.652	0.27237644
957.817	0.27216672
957.983	0.27231554
958.148	0.27156908
958.314	0.27120811
958.479	0.2695541
958.644	0.26968526
958.81	0.27004156
958.975	0.26973473
959.14	0.2696848
959.306	0.26977258
959.471	0.26882688
959.636	0.2682253
959.801	0.26872103
959.967	0.26753831
960.132	0.26673394
960.297	0.26612169
960.462	0.2663826
960.627	0.26637052
960.792	0.26707646
960.957	0.26642045
961.123	0.26780592
961.288	0.26768604
961.453	0.26809453
961.618	0.26815446
961.783	0.26817578
961.948	0.26759424
962.113	0.26667829
962.277	0.26481708
962.442	0.26451571
962.607	0.26417212
962.772	0.26272848
962.937	0.26256399
963.102	0.26286146
963.267	0.26300786
963.431	0.26350206
963.596	0.2626552
963.761	0.26223088
963.926	0.2621278
964.09	0.26223022
964.255	0.26252741
964.42	0.26257171
964.584	0.26295487
964.749	0.26301101
964.914	0.26262923
965.078	0.2626494
965.243	0.26182916
965.407	0.26081822
965.572	0.2601231
965.736	0.25969629
965.901	0.26014553
966.065	0.26087433
966.23	0.26088627
966.394	0.26158296
966.559	0.26177855
966.723	0.26180596
966.887	0.26154861
967.052	0.26059318
967.216	0.25906665
967.38	0.25825423
967.545	0.25754613
967.709	0.25800741
967.873	0.25850398
968.037	0.25807871
968.202	0.25873537
968.366	0.25968455
968.53	0.26029657
968.694	0.26019408
968.858	0.25986163
969.022	0.25843936
969.187	0.25828096
969.351	0.25800621
969.515	0.25726032
969.679	0.2562004
969.843	0.2553277
970.007	0.25459256
970.171	0.25533951
970.335	0.25570209
970.499	0.25522997
970.662	0.25565915
970.826	0.2559035
970.99	0.2566801
971.154	0.25677586
971.318	0.25626483
971.482	0.25489645
971.645	0.25488336
971.809	0.25510689
971.973	0.25511639
972.137	0.25466576
972.3	0.25454926
972.464	0.25437627
972.628	0.25573629
972.791	0.255971
972.955	0.25528488
973.119	0.25523344
973.282	0.25520993
973.446	0.25495945
973.609	0.25462528
973.773	0.25389692
973.936	0.25308274
974.1	0.25252051
974.263	0.25174534
974.427	0.2516586
974.59	0.25150856
974.754	0.25170283
974.917	0.25134276
975.08	0.25165198
975.244	0.25134727
975.407	0.25188996
975.57	0.25154087
975.734	0.25044779
975.897	0.25011394
976.06	0.25018862
976.223	0.25050042
976.387	0.25118109
976.55	0.25066008
976.713	0.250165
976.876	0.25046272
977.039	0.25014117
977.202	0.24963578
977.365	0.24827066
977.528	0.24840894
977.692	0.24874077
977.855	0.24804268
978.018	0.2478591
978.181	0.24755743
978.344	0.24762224
978.506	0.24772913
978.669	0.24672693
978.832	0.24570243
978.995	0.24583067
979.158	0.24652453
979.321	0.24640724
979.484	0.24576661
979.646	0.24546279
979.809	0.24594675
979.972	0.24552836
980.135	0.24639551
980.297	0.24597937
980.46	0.2452678
980.623	0.24571834
980.786	0.24554656
980.948	0.24497052
981.111	0.24493972
981.273	0.24450759
981.436	0.24387914
981.599	0.24487673
981.761	0.24377687
981.924	0.2443857
982.086	0.24394877
982.249	0.24442929
982.411	0.24419098
982.573	0.24399179
982.736	0.24410905
982.898	0.24481039
983.061	0.24452578
983.223	0.24442354
983.385	0.24406219
983.548	0.24433512
983.71	0.24376934
983.872	0.24317569
984.034	0.24216775
984.197	0.24127042
984.359	0.24167449
984.521	0.24210452
984.683	0.24213334
984.845	0.24304659
985.008	0.24201303
985.17	0.24400684
985.332	0.24507832
985.494	0.24415674
985.656	0.24411316
985.818	0.24302421
985.98	0.24283473
986.142	0.24229645
986.304	0.24023158
986.466	0.23881428
986.628	0.23844174
986.79	0.23749509
986.952	0.23665315
987.113	0.23662657
987.275	0.23702148
987.437	0.23775684
987.599	0.23846552
987.761	0.23855995
987.922	0.23847261
988.084	0.23912131
988.246	0.23863672
988.408	0.23897518
988.569	0.23846896
988.731	0.23904804
988.893	0.23977055
989.054	0.24124812
989.216	0.24119547
989.377	0.24054633
989.539	0.2400764
989.701	0.23949975
989.862	0.23789406
990.024	0.23630522
990.185	0.23466521
990.347	0.23517092
990.508	0.2354371
990.669	0.23636222
990.831	0.23699854
990.992	0.23872549
991.154	0.23871579
991.315	0.24051924
991.476	0.24035323
991.638	0.23985099
991.799	0.23895418
991.96	0.23801183
992.121	0.23717774
992.283	0.23776903
992.444	0.23670637
992.605	0.23503883
992.766	0.23528072
992.927	0.23460704
993.088	0.23488957
993.249	0.23379272
993.41	0.23327758
993.572	0.23204136
993.733	0.23319933
993.894	0.23309705
994.055	0.23109007
994.216	0.23161004
994.376	0.22968393
994.537	0.22985027
994.698	0.22982637
994.859	0.22975557
995.02	0.22911552
995.181	0.22997123
995.342	0.22970251
995.503	0.23115797
995.663	0.23124847
995.824	0.23089727
995.985	0.23170595
996.146	0.23190426
996.306	0.23218564
996.467	0.23218736
996.628	0.2340334
996.788	0.23360823
996.949	0.23588281
997.11	0.23338989
997.27	0.23294514
997.431	0.23367931
997.591	0.23074915
997.752	0.22676376
997.912	0.22765193
998.073	0.22568478
998.233	0.22709243
998.394	0.22692947
998.554	0.22863796
998.714	0.22982166
998.875	0.23131411
999.035	0.22956712
999.196	0.22970952
999.356	0.22990087
999.516	0.23167895
999.676	0.23138584
999.837	0.23324724
999.997	0.23332866
1000.157	0.23373451
1000.317	0.23043512
1000.477	0.2288868
1000.638	0.22642131
1000.798	0.22568587
1000.958	0.22527763
1001.118	0.22489716
1001.278	0.22450483
1001.438	0.22705834
1001.598	0.22807016
1001.758	0.22910203
1001.918	0.22808978
1002.078	0.22542699
1002.238	0.22550201
1002.398	0.22570548
1002.558	0.22435892
1002.718	0.22263661
1002.878	0.22184275
1003.037	0.21783825
1003.197	0.21907639
1003.357	0.21761202
1003.517	0.22000388
1003.677	0.21947775
1003.836	0.21951009
1003.996	0.21940795
1004.156	0.22283707
1004.315	0.22281854
1004.475	0.22588358
1004.635	0.22596631
1004.794	0.22877937
1004.954	0.22943456
1005.114	0.22991206
1005.273	0.23115652
1005.433	0.22972806
1005.592	0.22943265
1005.752	0.22643863
1005.911	0.22461102
1006.071	0.22496975
1006.23	0.22228308
1006.389	0.22074687
1006.549	0.22187334
1006.708	0.22052695
1006.868	0.21739806
1007.027	0.22007002
1007.186	0.22080803
1007.345	0.22488986
1007.505	0.22575436
1007.664	0.22675038
1007.823	0.22634062
1007.982	0.22875396
1008.142	0.22734088
1008.301	0.22682518
1008.46	0.22413286
1008.619	0.22051075
1008.778	0.22015839
1008.937	0.22014567
1009.096	0.21982303
1009.255	0.21970637
1009.414	0.21571239
1009.573	0.21688487
1009.732	0.22104629
1009.891	0.21962631
1010.05	0.22146041
1010.209	0.22090705
1010.368	0.22023105
1010.527	0.22279841
1010.686	0.2241109
1010.845	0.22124362
1011.003	0.22366282
1011.162	0.22254724
1011.321	0.21992884
1011.48	0.22154499
1011.638	0.22127836
1011.797	0.22180745
1011.956	0.22100886
1012.115	0.22035887
1012.273	0.21855617
1012.432	0.22079127
1012.59	0.21690974
1012.749	0.21631874
1012.908	0.21290385
1013.066	0.21536478
1013.225	0.21404669
1013.383	0.21690747
1013.542	0.21731581
1013.7	0.21823536
1013.859	0.22327561
1014.017	0.22392973
1014.175	0.2198023
1014.334	0.22306395
1014.492	0.22210906
1014.65	0.22342695
1014.809	0.2265663
1014.967	0.22394983
1015.125	0.22587543
1015.284	0.23307398
1015.442	0.22879814
1015.6	0.22870092
1015.758	0.22615457
1015.916	0.22184927
1016.075	0.21927127
1016.233	0.21832403
1016.391	0.21985485
1016.549	0.22103208
1016.707	0.22164952
1016.865	0.22479962
1017.023	0.22236421
1017.181	0.22305686
1017.339	0.22295173
1017.497	0.21839538
1017.655	0.21824312
1017.813	0.2194005
1017.971	0.22061228
1018.129	0.22652706
1018.286	0.22863403
1018.444	0.2238212
1018.602	0.22380106
1018.76	0.22167827
1018.918	0.21827138
1019.075	0.21647158
1019.233	0.21167459
1019.391	0.21201179
1019.549	0.21519037
1019.706	0.21667494
1019.864	0.22047987
1020.022	0.22224512
1020.179	0.2241544
1020.337	0.22601732
1020.494	0.22491821
1020.652	0.22467709
1020.809	0.22391217
1020.967	0.22065281
1021.124	0.21820783
1021.282	0.22268614
1021.439	0.22133995
1021.597	0.22250761
1021.754	0.22142378
1021.911	0.22610336
1022.069	0.22309006
1022.226	0.22152902
1022.384	0.21071785
1022.541	0.2112781
1022.698	0.20626843
1022.855	0.20834363
1023.013	0.20685897
1023.17	0.20825485
1023.327	0.21167561
1023.484	0.21972929
1023.641	0.22036953
1023.798	0.23096916
1023.956	0.23620425
1024.113	0.22652657
1024.27	0.22781157
1024.427	0.23063095
1024.584	0.22592081
1024.741	0.22566014
1024.898	0.21717728
1025.055	0.20961847
1025.212	0.20763673
1025.369	0.20270326
1025.525	0.19868888
1025.682	0.20225885
1025.839	0.20469791
1025.996	0.20868762
1026.153	0.21374328
1026.31	0.22371454
1026.466	0.23192587
1026.623	0.24605943
1026.78	0.24434507
1026.937	0.24240963
1027.093	0.23926803
1027.25	0.24596022
1027.407	0.2425313
1027.563	0.24259222
1027.72	0.23153709
1027.876	0.22593041
1028.033	0.22985389
1028.19	0.23534824
1028.346	0.22431187
1028.503	0.22850865
1028.659	0.22789394
1028.816	0.23113769
1028.972	0.24292799
1029.128	0.24975213
1029.285	0.24281763
1029.441	0.24183639
1029.598	0.23011777
1029.754	0.23755878
1029.91	0.23556554
1030.067	0.22263202
1030.223	0.21855743
1030.379	0.22065079
1030.535	0.22579554
1030.691	0.23138226
1030.848	0.23004898
1031.004	0.23106408
1031.16	0.24241
1031.316	0.24707686
1031.472	0.25609159
1031.628	0.25583328
1031.784	0.25657275
1031.94	0.26094035
1032.096	0.2596136
1032.252	0.2670998
1032.408	0.27443746
1032.564	0.26704147
1032.72	0.2718673
1032.876	0.27115252
1033.032	0.25793084
1033.188	0.2586765
1033.344	0.2569206
1033.5	0.2557271
1033.655	0.25614044
1033.811	0.25676912
1033.967	0.27277356
