Data from 0_1_mm_pl_10pc_Absorbance__0__18-25-06-764.txt Node

Date: Wed Mar 01 18:25:06 CET 2023
User: Ange
Spectrometer: FLMT08341
Trigger mode: 0
Integration Time (sec): 1.000000E-2
Scans to average: 400
Electric dark correction enabled: true
Nonlinearity correction enabled: false
Boxcar width: 3
XAxis mode: Wavelengths
Number of Pixels in Spectrum: 3648
>>>>>Begin Spectral Data<<<<<
345.271	0.0222031
345.487	0.02183485
345.704	0.01080606
345.921	0.0116034
346.137	0.00678416
346.354	0.00448844
346.571	-0.04043721
346.787	-0.04357013
347.004	0.22371233
347.22	0.0039694
347.437	0.09797048
347.653	-0.08181051
347.87	0.08906031
348.086	-0
348.303	-0.42200908
348.519	0.06888013
348.736	0.04732827
348.952	0.04471294
349.169	0.04516478
349.385	0.04552284
349.601	0.04412401
349.818	0.04381794
350.034	0.04515061
350.251	0.04517033
350.467	0.04766753
350.683	0.04488719
350.9	0.04587866
351.116	0.04696409
351.332	0.04653089
351.549	0.04910807
351.765	0.04983725
351.981	0.04939431
352.197	0.05150491
352.414	0.05051231
352.63	0.05009228
352.846	0.05018309
353.062	0.04696008
353.278	0.04680698
353.495	0.04814424
353.711	0.04781186
353.927	0.04967045
354.143	0.05205174
354.359	0.05340785
354.575	0.05534553
354.792	0.05703864
355.008	0.05727271
355.224	0.05805216
355.44	0.05926926
355.656	0.05845114
355.872	0.05849202
356.088	0.05922006
356.304	0.05977456
356.52	0.06016956
356.736	0.05920944
356.952	0.05736108
357.168	0.0558707
357.384	0.05575134
357.6	0.05527096
357.816	0.05652497
358.032	0.0572735
358.248	0.06049738
358.464	0.06101652
358.679	0.06351238
358.895	0.0646364
359.111	0.06671239
359.327	0.06713602
359.543	0.06765583
359.759	0.06850202
359.974	0.06939092
360.19	0.06909202
360.406	0.0702617
360.622	0.07009909
360.838	0.06845786
361.053	0.06876885
361.269	0.06783054
361.485	0.06891975
361.701	0.07021874
361.916	0.06916907
362.132	0.0693767
362.348	0.07120033
362.563	0.07155081
362.779	0.0707771
362.995	0.07057531
363.21	0.07106365
363.426	0.07159821
363.641	0.07258715
363.857	0.07319811
364.073	0.07322421
364.288	0.07408297
364.504	0.07511292
364.719	0.07640104
364.935	0.07650518
365.15	0.07649168
365.366	0.07532757
365.581	0.07571805
365.797	0.0762019
366.012	0.07563395
366.228	0.0745143
366.443	0.07538896
366.658	0.07571488
366.874	0.0764688
367.089	0.07731214
367.305	0.07783331
367.52	0.07885289
367.735	0.07994348
367.951	0.08016508
368.166	0.08122317
368.381	0.08227391
368.597	0.08267326
368.812	0.08348827
369.027	0.0837702
369.243	0.08347568
369.458	0.08449069
369.673	0.08454616
369.888	0.08369117
370.104	0.08328529
370.319	0.08407462
370.534	0.08409875
370.749	0.08373726
370.964	0.08420309
371.179	0.08403472
371.395	0.08497022
371.61	0.08510874
371.825	0.08498499
372.04	0.08579298
372.255	0.08632074
372.47	0.08585173
372.685	0.08525108
372.9	0.08507814
373.115	0.08587196
373.33	0.08571099
373.545	0.08566314
373.76	0.08664146
373.975	0.08737527
374.19	0.0886862
374.405	0.09006417
374.62	0.09103497
374.835	0.09246454
375.05	0.0933033
375.265	0.09364825
375.48	0.09395434
375.695	0.09458816
375.91	0.09441025
376.125	0.09348514
376.339	0.09244694
376.554	0.09229634
376.769	0.09361644
376.984	0.09368071
377.199	0.09415545
377.414	0.09409333
377.628	0.09463998
377.843	0.09513969
378.058	0.09547809
378.273	0.09519982
378.487	0.09602164
378.702	0.09514329
378.917	0.09540096
379.131	0.09601221
379.346	0.09647143
379.561	0.09662127
379.775	0.09612517
379.99	0.09573731
380.205	0.09618887
380.419	0.09645123
380.634	0.09650153
380.848	0.0969994
381.063	0.09762867
381.278	0.09887501
381.492	0.0993067
381.707	0.10046972
381.921	0.10052932
382.136	0.10157206
382.35	0.10260598
382.565	0.10258488
382.779	0.10305035
382.994	0.10327799
383.208	0.10311396
383.422	0.1044177
383.637	0.10347756
383.851	0.10352554
384.066	0.10430747
384.28	0.10426102
384.494	0.10527551
384.709	0.10601997
384.923	0.10663842
385.137	0.10745078
385.352	0.10733767
385.566	0.10752817
385.78	0.10702303
385.995	0.10674561
386.209	0.10660767
386.423	0.10630773
386.637	0.107061
386.852	0.10692792
387.066	0.10729553
387.28	0.10797415
387.494	0.10812607
387.708	0.10826203
387.923	0.1084061
388.137	0.10892528
388.351	0.10956036
388.565	0.10957038
388.779	0.10989467
388.993	0.11097487
389.207	0.11165898
389.421	0.11231051
389.635	0.11193978
389.85	0.11184552
390.064	0.11257051
390.278	0.11339265
390.492	0.11339345
390.706	0.11363761
390.92	0.11334724
391.134	0.1142518
391.348	0.11577247
391.561	0.11574671
391.775	0.11555178
391.989	0.11598878
392.203	0.11651533
392.417	0.11744051
392.631	0.11756634
392.845	0.11691654
393.059	0.11772446
393.273	0.11791876
393.486	0.11756152
393.7	0.11738484
393.914	0.11754039
394.128	0.11749554
394.342	0.11751566
394.555	0.11696567
394.769	0.11720887
394.983	0.11787403
395.197	0.11809204
395.41	0.11819342
395.624	0.11873022
395.838	0.11911836
396.051	0.12001871
396.265	0.12011864
396.479	0.11997471
396.692	0.12008715
396.906	0.11957733
397.12	0.11931982
397.333	0.11965382
397.547	0.1194068
397.76	0.11968451
397.974	0.11976535
398.187	0.12022275
398.401	0.12107805
398.614	0.12143876
398.828	0.12143908
399.041	0.12177515
399.255	0.12216299
399.468	0.12261594
399.682	0.1225995
399.895	0.12277169
400.109	0.12293701
400.322	0.12326802
400.536	0.12292891
400.749	0.12321286
400.962	0.12325534
401.176	0.12265466
401.389	0.12267349
401.602	0.12216715
401.816	0.12202738
402.029	0.12230418
402.242	0.12180275
402.456	0.12204359
402.669	0.12239681
402.882	0.12236649
403.095	0.12289318
403.309	0.12320374
403.522	0.12331814
403.735	0.12363872
403.948	0.1234124
404.161	0.12430957
404.375	0.12448839
404.588	0.12465132
404.801	0.12495048
405.014	0.12543005
405.227	0.12583258
405.44	0.12622475
405.653	0.12632551
405.866	0.12608063
406.079	0.12606914
406.293	0.12568351
406.506	0.12546658
406.719	0.12503864
406.932	0.12509946
407.145	0.12477463
407.358	0.12508643
407.571	0.12475658
407.784	0.12505573
407.996	0.12525849
408.209	0.12523312
408.422	0.12473031
408.635	0.12456177
408.848	0.12465729
409.061	0.1248448
409.274	0.12445855
409.487	0.12400578
409.7	0.12410833
409.912	0.12445863
410.125	0.12454618
410.338	0.1241347
410.551	0.12395774
410.764	0.12385993
410.976	0.12372393
411.189	0.1234557
411.402	0.12283835
411.615	0.12287993
411.827	0.12302213
412.04	0.12293775
412.253	0.12282893
412.465	0.12286681
412.678	0.12283081
412.891	0.12315687
413.103	0.12252688
413.316	0.12218223
413.529	0.12215995
413.741	0.12203836
413.954	0.12193833
414.166	0.12180886
414.379	0.12140366
414.591	0.12164107
414.804	0.1213658
415.016	0.12116555
415.229	0.12127471
415.441	0.12108822
415.654	0.12115483
415.866	0.12129391
416.079	0.1210382
416.291	0.12117603
416.504	0.12107521
416.716	0.12071023
416.928	0.12050504
417.141	0.12010445
417.353	0.11982912
417.566	0.11937287
417.778	0.11909613
417.99	0.11870636
418.203	0.11823002
418.415	0.11793269
418.627	0.11764166
418.839	0.11736196
419.052	0.11768677
419.264	0.11752141
419.476	0.11747193
419.688	0.11755704
419.901	0.11737094
420.113	0.11710828
420.325	0.11667884
420.537	0.11610772
420.749	0.11577389
420.961	0.11526477
421.174	0.1151028
421.386	0.11477258
421.598	0.11453157
421.81	0.11432312
422.022	0.11401674
422.234	0.11384561
422.446	0.11360586
422.658	0.11311873
422.87	0.11275232
423.082	0.11245457
423.294	0.11224566
423.506	0.11200472
423.718	0.11163239
423.93	0.1111094
424.142	0.11079613
424.354	0.11050589
424.566	0.11017225
424.778	0.10982565
424.99	0.10951193
425.202	0.10906346
425.414	0.10900559
425.625	0.10873217
425.837	0.10837673
426.049	0.10808323
426.261	0.10782754
426.473	0.10737793
426.684	0.10686679
426.896	0.10654589
427.108	0.10619587
427.32	0.10588557
427.531	0.10544848
427.743	0.10497836
427.955	0.10462732
428.167	0.10448352
428.378	0.10405888
428.59	0.1035372
428.802	0.103018
429.013	0.10255466
429.225	0.10204365
429.436	0.1014647
429.648	0.1009101
429.86	0.10055553
430.071	0.10033114
430.283	0.09988517
430.494	0.09925096
430.706	0.09896655
430.917	0.0985795
431.129	0.0980594
431.34	0.09755206
431.552	0.09702032
431.763	0.09659619
431.975	0.09659551
432.186	0.09599413
432.398	0.09574433
432.609	0.09528379
432.821	0.09491546
433.032	0.09438767
433.243	0.09404792
433.455	0.09343129
433.666	0.09304574
433.877	0.09253876
434.089	0.09213552
434.3	0.09185022
434.511	0.09141407
434.723	0.09112055
434.934	0.09091549
435.145	0.09050935
435.356	0.09007674
435.568	0.08968095
435.779	0.08901699
435.99	0.08868615
436.201	0.08822711
436.412	0.08770205
436.624	0.08730375
436.835	0.08692661
437.046	0.08662186
437.257	0.08623248
437.468	0.08579004
437.679	0.08548025
437.89	0.08488357
438.101	0.08444449
438.312	0.08404584
438.523	0.08377383
438.734	0.0833385
438.945	0.08293491
439.156	0.08211006
439.367	0.08185525
439.578	0.08159356
439.789	0.08110188
440	0.08055351
440.211	0.08007887
440.422	0.07957334
440.633	0.07923805
440.844	0.07869225
441.055	0.07797466
441.266	0.07738629
441.477	0.0766845
441.687	0.07615594
441.898	0.07557901
442.109	0.07498964
442.32	0.07436124
442.531	0.07388154
442.741	0.07344225
442.952	0.0730877
443.163	0.0726046
443.374	0.07207305
443.584	0.07164745
443.795	0.07112935
444.006	0.07069114
444.216	0.07014973
444.427	0.06959169
444.638	0.06903159
444.848	0.0685754
445.059	0.06807135
445.27	0.06772434
445.48	0.0672841
445.691	0.06692347
445.901	0.06637292
446.112	0.06603699
446.323	0.06561643
446.533	0.06516393
446.744	0.06458537
446.954	0.06396557
447.165	0.06339777
447.375	0.06307748
447.586	0.06265059
447.796	0.06208857
448.006	0.06155223
448.217	0.0611632
448.427	0.06064029
448.638	0.06018497
448.848	0.05967009
449.058	0.0590358
449.269	0.05868459
449.479	0.05831791
449.689	0.05783936
449.9	0.0575192
450.11	0.05707674
450.32	0.05647103
450.531	0.05607172
450.741	0.05564006
450.951	0.05500599
451.161	0.0544349
451.372	0.05391073
451.582	0.05364254
451.792	0.05332962
452.002	0.05294803
452.212	0.05237641
452.422	0.05210705
452.633	0.05188596
452.843	0.05165758
453.053	0.05110622
453.263	0.05069758
453.473	0.05016502
453.683	0.04987158
453.893	0.04944358
454.103	0.0489428
454.313	0.04848466
454.523	0.04809544
454.733	0.04781361
454.943	0.04760171
455.153	0.0473337
455.363	0.04710542
455.573	0.04687109
455.783	0.04654723
455.993	0.04617082
456.203	0.04574553
456.413	0.04531074
456.623	0.04489571
456.833	0.04441158
457.042	0.04392153
457.252	0.0433893
457.462	0.04302604
457.672	0.0425695
457.882	0.04228714
458.091	0.04194351
458.301	0.04167508
458.511	0.04122498
458.721	0.04104389
458.931	0.04068469
459.14	0.04050364
459.35	0.04009792
459.56	0.03976702
459.769	0.03939536
459.979	0.03920912
460.189	0.03880479
460.398	0.03852605
460.608	0.03819216
460.817	0.03790795
461.027	0.0375518
461.237	0.03721681
461.446	0.03694991
461.656	0.03676286
461.865	0.03638933
462.075	0.03603698
462.284	0.03576036
462.494	0.03541688
462.703	0.03518214
462.913	0.03482604
463.122	0.0344913
463.332	0.03424747
463.541	0.03408021
463.751	0.03386986
463.96	0.03367671
464.169	0.03350067
464.379	0.03332461
464.588	0.033051
464.797	0.03274247
465.007	0.03249045
465.216	0.03216517
465.425	0.03197727
465.635	0.03144858
465.844	0.03126171
466.053	0.030967
466.263	0.03083283
466.472	0.03057872
466.681	0.03036408
466.89	0.03006029
467.099	0.03003089
467.309	0.02978233
467.518	0.02959764
467.727	0.02928299
467.936	0.02900131
468.145	0.02877938
468.354	0.02856314
468.563	0.02839909
468.772	0.02802827
468.982	0.02783786
469.191	0.02765399
469.4	0.02738698
469.609	0.0271687
469.818	0.02686722
470.027	0.02651873
470.236	0.0264058
470.445	0.02611011
470.654	0.02586805
470.863	0.02570683
471.072	0.02549727
471.28	0.02535685
471.489	0.02523849
471.698	0.0249959
471.907	0.02488597
472.116	0.02483943
472.325	0.02468674
472.534	0.02451644
472.743	0.02442693
472.951	0.0242483
473.16	0.02407704
473.369	0.02400773
473.578	0.02381878
473.786	0.02373186
473.995	0.02369497
474.204	0.02359699
474.413	0.02343694
474.621	0.02326762
474.83	0.02308689
475.039	0.02289658
475.247	0.02269854
475.456	0.0225691
475.665	0.02240339
475.873	0.02236213
476.082	0.02230452
476.291	0.02221902
476.499	0.02217568
476.708	0.02210631
476.916	0.02206255
477.125	0.02190705
477.333	0.02171913
477.542	0.02155257
477.75	0.02139789
477.959	0.02120834
478.167	0.02106407
478.376	0.02085936
478.584	0.0207188
478.793	0.02070791
479.001	0.02070856
479.209	0.02061449
479.418	0.02056094
479.626	0.02039934
479.834	0.02026003
480.043	0.02022746
480.251	0.02011916
480.459	0.0200313
480.668	0.0199321
480.876	0.01982756
481.084	0.01977593
481.293	0.01971273
481.501	0.01966691
481.709	0.01951508
481.917	0.01940383
482.125	0.01936552
482.334	0.01932052
482.542	0.01930539
482.75	0.01920773
482.958	0.01912131
483.166	0.01913584
483.374	0.01907953
483.583	0.01901578
483.791	0.01891959
483.999	0.01890666
484.207	0.01891141
484.415	0.01888249
484.623	0.01879174
484.831	0.01876101
485.039	0.01862806
485.247	0.01862024
485.455	0.01853829
485.663	0.01848177
485.871	0.01844883
486.079	0.01843428
486.287	0.01842173
486.495	0.01845818
486.702	0.01838754
486.91	0.0183255
487.118	0.01831222
487.326	0.01824373
487.534	0.0181785
487.742	0.0181495
487.95	0.01820588
488.157	0.01826728
488.365	0.01825907
488.573	0.01824495
488.781	0.01825901
488.988	0.01831627
489.196	0.0182974
489.404	0.01818626
489.612	0.01816072
489.819	0.0181572
490.027	0.01809789
490.235	0.01807694
490.442	0.01803528
490.65	0.01805755
490.857	0.0180432
491.065	0.01801732
491.273	0.01803949
491.48	0.01812491
491.688	0.0181626
491.895	0.01824281
492.103	0.01821855
492.31	0.01830959
492.518	0.01834309
492.725	0.01839221
492.933	0.01832438
493.14	0.01833897
493.348	0.01826793
493.555	0.01823541
493.763	0.01820165
493.97	0.01813687
494.177	0.01808509
494.385	0.01811501
494.592	0.01804572
494.8	0.01807162
495.007	0.01812441
495.214	0.01816423
495.422	0.01821627
495.629	0.01830328
495.836	0.01843117
496.043	0.01853516
496.251	0.01853425
496.458	0.01856467
496.665	0.01859415
496.872	0.01863226
497.08	0.01863439
497.287	0.0185904
497.494	0.01863486
497.701	0.01869193
497.908	0.01873655
498.115	0.01874242
498.322	0.01886842
498.53	0.01886485
498.737	0.0189265
498.944	0.01888387
499.151	0.01894497
499.358	0.01899397
499.565	0.01907903
499.772	0.01906806
499.979	0.0191861
500.186	0.0192109
500.393	0.01929687
500.6	0.01927837
500.807	0.01929123
501.014	0.01932142
501.221	0.01939902
501.427	0.01938857
501.634	0.01946767
501.841	0.01952842
502.048	0.0196574
502.255	0.01975832
502.462	0.01986267
502.669	0.01987656
502.875	0.02001946
503.082	0.02009332
503.289	0.02016865
503.496	0.02025653
503.702	0.02030287
503.909	0.02030473
504.116	0.0204205
504.323	0.02044843
504.529	0.0204669
504.736	0.0205156
504.943	0.02052595
505.149	0.0205951
505.356	0.0207623
505.563	0.02078916
505.769	0.02081943
505.976	0.02091954
506.182	0.02098309
506.389	0.02105329
506.595	0.0211732
506.802	0.02115554
507.008	0.02119743
507.215	0.02126827
507.421	0.02130575
507.628	0.0214023
507.834	0.02149095
508.041	0.02154519
508.247	0.02163279
508.454	0.02172368
508.66	0.02185745
508.866	0.02193891
509.073	0.02197777
509.279	0.02206514
509.486	0.02211505
509.692	0.02220801
509.898	0.02227751
510.105	0.02232905
510.311	0.02245219
510.517	0.0225746
510.723	0.02266608
510.93	0.02275273
511.136	0.02285966
511.342	0.02299003
511.548	0.02304708
511.754	0.02313574
511.961	0.02322514
512.167	0.02335821
512.373	0.02341774
512.579	0.02352192
512.785	0.02362499
512.991	0.0237937
513.197	0.02386722
513.404	0.02395616
513.61	0.02400193
513.816	0.02413379
514.022	0.02423193
514.228	0.02431439
514.434	0.02437528
514.64	0.0244672
514.846	0.02458238
515.052	0.02466534
515.258	0.02476594
515.464	0.02481775
515.669	0.02493818
515.875	0.02505707
516.081	0.02518323
516.287	0.02527282
516.493	0.0254052
516.699	0.02556958
516.905	0.02570925
517.111	0.0258225
517.316	0.02591871
517.522	0.02602383
517.728	0.02615793
517.934	0.02630482
518.139	0.0263836
518.345	0.02650676
518.551	0.02662183
518.757	0.02676049
518.962	0.02689443
519.168	0.02705416
519.374	0.02709545
519.579	0.02720247
519.785	0.02732329
519.991	0.02743626
520.196	0.02754134
520.402	0.02767731
520.607	0.02770614
520.813	0.02786099
521.018	0.02798295
521.224	0.02808411
521.429	0.02823699
521.635	0.02838995
521.84	0.02843908
522.046	0.02861076
522.251	0.02874498
522.457	0.02884595
522.662	0.02895588
522.868	0.02903945
523.073	0.02912973
523.279	0.02931111
523.484	0.02946363
523.689	0.02961381
523.895	0.02981491
524.1	0.0299957
524.305	0.03012744
524.511	0.03028745
524.716	0.03038378
524.921	0.0305141
525.126	0.03063257
525.332	0.03072826
525.537	0.0308106
525.742	0.03095953
525.947	0.03106551
526.153	0.03122427
526.358	0.03132958
526.563	0.0314223
526.768	0.03157875
526.973	0.03174481
527.178	0.03190273
527.383	0.03205091
527.588	0.03219667
527.794	0.03237997
527.999	0.03257869
528.204	0.03270821
528.409	0.03281824
528.614	0.03293888
528.819	0.0330475
529.024	0.03318338
529.229	0.03325319
529.434	0.03336366
529.639	0.03347041
529.843	0.0336464
530.048	0.03377144
530.253	0.0339537
530.458	0.03406966
530.663	0.03422255
530.868	0.03441407
531.073	0.03458871
531.278	0.03472709
531.482	0.03491583
531.687	0.03502554
531.892	0.0352031
532.097	0.03534784
532.302	0.03549655
532.506	0.03564327
532.711	0.03580696
532.916	0.03596286
533.12	0.03610429
533.325	0.03626625
533.53	0.03645907
533.734	0.03654908
533.939	0.0366851
534.144	0.03682595
534.348	0.0369802
534.553	0.03717431
534.757	0.03727374
534.962	0.03744916
535.167	0.03766667
535.371	0.03784475
535.576	0.0380646
535.78	0.03823703
535.985	0.03841343
536.189	0.03862531
536.394	0.03874239
536.598	0.03890151
536.803	0.03905639
537.007	0.03922031
537.211	0.03937094
537.416	0.03955204
537.62	0.03971517
537.825	0.03997124
538.029	0.04015331
538.233	0.04033411
538.438	0.04047533
538.642	0.04064902
538.846	0.04078447
539.05	0.04094133
539.255	0.04102062
539.459	0.04111675
539.663	0.04129813
539.867	0.04141312
540.072	0.04154386
540.276	0.04176612
540.48	0.04198167
540.684	0.04216734
540.888	0.04238316
541.092	0.04251002
541.297	0.04269464
541.501	0.04287667
541.705	0.04301309
541.909	0.04318262
542.113	0.043374
542.317	0.04354286
542.521	0.04372137
542.725	0.04391309
542.929	0.04405508
543.133	0.04422102
543.337	0.04437849
543.541	0.04453877
543.745	0.04469082
543.949	0.04492921
544.153	0.04511251
544.357	0.04530799
544.56	0.04546729
544.764	0.04561711
544.968	0.04578163
545.172	0.04595839
545.376	0.04611976
545.58	0.04623802
545.783	0.04646923
545.987	0.04670014
546.191	0.04686412
546.395	0.04702696
546.598	0.04727068
546.802	0.04745731
547.006	0.04763289
547.21	0.04777235
547.413	0.04791596
547.617	0.04810537
547.821	0.0482756
548.024	0.04842027
548.228	0.04857122
548.431	0.04880892
548.635	0.04899627
548.839	0.04913649
549.042	0.04934965
549.246	0.04955822
549.449	0.04972306
549.653	0.04992933
549.856	0.05008929
550.06	0.05024797
550.263	0.05044454
550.467	0.05064401
550.67	0.05083737
550.874	0.05104571
551.077	0.05122545
551.28	0.05141028
551.484	0.05156916
551.687	0.05176803
551.891	0.05191996
552.094	0.05210536
552.297	0.05224882
552.501	0.05244672
552.704	0.05267708
552.907	0.05286955
553.11	0.05304374
553.314	0.05322008
553.517	0.0533865
553.72	0.05362368
553.923	0.05378376
554.127	0.05397659
554.33	0.0541336
554.533	0.05434075
554.736	0.05450598
554.939	0.05469965
555.142	0.05488625
555.345	0.05504689
555.549	0.05517236
555.752	0.05541952
555.955	0.0556119
556.158	0.05588794
556.361	0.05606646
556.564	0.05625598
556.767	0.05642801
556.97	0.05663819
557.173	0.05678684
557.376	0.05694848
557.579	0.05707106
557.782	0.05727377
557.984	0.05742632
558.187	0.05767543
558.39	0.05782135
558.593	0.05803561
558.796	0.05827444
558.999	0.05843377
559.202	0.05865371
559.404	0.05890465
559.607	0.0590287
559.81	0.05924387
560.013	0.05942859
560.216	0.05956601
560.418	0.05974915
560.621	0.05987767
560.824	0.05996618
561.026	0.06020922
561.229	0.06040456
561.432	0.06060894
561.634	0.06078808
561.837	0.06099002
562.04	0.06116348
562.242	0.06135803
562.445	0.06150197
562.647	0.06170293
562.85	0.06186607
563.053	0.06206659
563.255	0.06224244
563.458	0.06247738
563.66	0.06269741
563.863	0.06291235
564.065	0.06310603
564.268	0.06328059
564.47	0.06347143
564.672	0.06367949
564.875	0.06385613
565.077	0.06404852
565.28	0.06425243
565.482	0.06445103
565.684	0.06465095
565.887	0.06484206
566.089	0.06502307
566.291	0.06520103
566.494	0.06536653
566.696	0.0655128
566.898	0.06563739
567.1	0.06575855
567.303	0.06594114
567.505	0.06613594
567.707	0.0662823
567.909	0.06644293
568.111	0.06659916
568.314	0.06676852
568.516	0.0670071
568.718	0.06723916
568.92	0.06742801
569.122	0.06763552
569.324	0.06788393
569.526	0.06809527
569.728	0.06831417
569.93	0.06848249
570.132	0.06860428
570.334	0.06875122
570.536	0.06891235
570.738	0.06900805
570.94	0.06915484
571.142	0.06927842
571.344	0.06946325
571.546	0.06960072
571.748	0.069784
571.95	0.06991093
572.152	0.07009284
572.354	0.07029097
572.555	0.07049316
572.757	0.07065447
572.959	0.07083543
573.161	0.07103897
573.363	0.07120416
573.564	0.0714184
573.766	0.0715619
573.968	0.07175427
574.17	0.07190819
574.371	0.07203844
574.573	0.07218258
574.775	0.07237202
574.976	0.07246894
575.178	0.07262671
575.38	0.07276513
575.581	0.07292573
575.783	0.07313317
575.985	0.07324949
576.186	0.07345784
576.388	0.07366472
576.589	0.07379495
576.791	0.07396691
576.992	0.07412942
577.194	0.07429441
577.395	0.07447202
577.597	0.07458201
577.798	0.07473595
578	0.07494205
578.201	0.07511357
578.402	0.07524946
578.604	0.07535788
578.805	0.0755259
579.007	0.07568853
579.208	0.07586063
579.409	0.0759785
579.611	0.07615166
579.812	0.07634264
580.013	0.07654179
580.215	0.07665743
580.416	0.07683961
580.617	0.07696204
580.818	0.07712397
581.019	0.07723454
581.221	0.07736512
581.422	0.07749171
581.623	0.07766249
581.824	0.07773301
582.025	0.07784954
582.226	0.07802926
582.428	0.07819449
582.629	0.07831131
582.83	0.0785291
583.031	0.07869974
583.232	0.07893424
583.433	0.07912354
583.634	0.07921241
583.835	0.07933299
584.036	0.07945302
584.237	0.07948474
584.438	0.0795605
584.639	0.07962183
584.84	0.079737
585.041	0.07987461
585.242	0.07997503
585.442	0.08009499
585.643	0.08030209
585.844	0.0804729
586.045	0.08060344
586.246	0.08068452
586.447	0.08075209
586.647	0.08088669
586.848	0.08107814
587.049	0.08114772
587.25	0.08121247
587.45	0.08136596
587.651	0.08151498
587.852	0.08168322
588.053	0.08181707
588.253	0.08191562
588.454	0.08205083
588.655	0.08219296
588.855	0.0822885
589.056	0.08240584
589.256	0.08252093
589.457	0.08259213
589.658	0.08268168
589.858	0.08278119
590.059	0.08287777
590.259	0.08299443
590.46	0.08309798
590.66	0.08322137
590.861	0.08340608
591.061	0.08350623
591.262	0.08361996
591.462	0.08374127
591.662	0.08381493
591.863	0.08390004
592.063	0.08400476
592.264	0.08410308
592.464	0.08424137
592.664	0.0843812
592.865	0.08454778
593.065	0.08463653
593.265	0.0847564
593.465	0.08482044
593.666	0.08489928
593.866	0.08500394
594.066	0.08509281
594.266	0.08511188
594.467	0.08525373
594.667	0.08535235
594.867	0.08553083
595.067	0.08560479
595.267	0.08566572
595.467	0.08570704
595.668	0.08583175
595.868	0.0859347
596.068	0.08600736
596.268	0.08599577
596.468	0.08605486
596.668	0.0861196
596.868	0.08622405
597.068	0.08627365
597.268	0.08633407
597.468	0.08640097
597.668	0.08651541
597.868	0.08661178
598.068	0.08671752
598.268	0.08675316
598.467	0.08684388
598.667	0.08684709
598.867	0.08687079
599.067	0.08689874
599.267	0.08695426
599.467	0.08697879
599.667	0.08705484
599.866	0.08713489
600.066	0.08726362
600.266	0.08739099
600.466	0.08753575
600.665	0.08760001
600.865	0.08774227
601.065	0.08781137
601.264	0.0878244
601.464	0.08789621
601.664	0.08794952
601.863	0.08795203
602.063	0.08803298
602.263	0.08801654
602.462	0.08811735
602.662	0.08821106
602.861	0.0882652
603.061	0.08830717
603.26	0.08832701
603.46	0.088311
603.659	0.0883691
603.859	0.08832303
604.058	0.08827608
604.258	0.08830595
604.457	0.08838091
604.657	0.08838485
604.856	0.08843385
605.056	0.08849982
605.255	0.08854517
605.454	0.0886384
605.654	0.08859828
605.853	0.08859614
606.052	0.08865868
606.252	0.08866975
606.451	0.08865113
606.65	0.08869589
606.849	0.08868158
607.049	0.08875275
607.248	0.08879103
607.447	0.08881196
607.646	0.08882493
607.845	0.08885119
608.045	0.08883874
608.244	0.08892912
608.443	0.08891139
608.642	0.08893295
608.841	0.08894926
609.04	0.08898107
609.239	0.08904002
609.438	0.08905413
609.637	0.08905338
609.836	0.08908437
610.035	0.08905279
610.234	0.08910293
610.433	0.0891135
610.632	0.08909467
610.831	0.08918892
611.03	0.08911376
611.229	0.08915287
611.428	0.08920387
611.627	0.08916034
611.826	0.08920139
612.025	0.08923058
612.224	0.08918872
612.422	0.08924837
612.621	0.08923453
612.82	0.08922519
613.019	0.0892807
613.218	0.08926558
613.416	0.0892171
613.615	0.08922912
613.814	0.08925352
614.012	0.08923809
614.211	0.08914797
614.41	0.08913899
614.608	0.08914075
614.807	0.08916688
615.006	0.08918093
615.204	0.089121
615.403	0.08909546
615.602	0.08913535
615.8	0.08914442
615.999	0.08907768
616.197	0.08902847
616.396	0.08901118
616.594	0.08898284
616.793	0.08900049
616.991	0.08900771
617.19	0.08891985
617.388	0.08896169
617.586	0.08894303
617.785	0.08886609
617.983	0.0889
618.182	0.08887078
618.38	0.08883306
618.578	0.08880323
618.777	0.08884507
618.975	0.08888911
619.173	0.08888426
619.372	0.08886108
619.57	0.08882618
619.768	0.08878741
619.966	0.08874859
620.165	0.08864486
620.363	0.08858333
620.561	0.08846809
620.759	0.08842285
620.957	0.08841597
621.155	0.0883876
621.354	0.088357
621.552	0.08833311
621.75	0.08825723
621.948	0.08829702
622.146	0.08824308
622.344	0.08818216
622.542	0.08818086
622.74	0.08818903
622.938	0.08810312
623.136	0.08809846
623.334	0.08806846
623.532	0.08797606
623.73	0.08787876
623.928	0.08779373
624.126	0.08776958
624.324	0.0877535
624.522	0.08763771
624.719	0.08757
624.917	0.08756765
625.115	0.08751453
625.313	0.08746384
625.511	0.0874032
625.708	0.08732302
625.906	0.08726156
626.104	0.08715339
626.302	0.08713339
626.499	0.08712316
626.697	0.08710454
626.895	0.08698979
627.093	0.08692718
627.29	0.08690964
627.488	0.08689136
627.686	0.08682423
627.883	0.08674168
628.081	0.08664123
628.278	0.08669168
628.476	0.08658791
628.673	0.08647989
628.871	0.08639328
629.068	0.08634025
629.266	0.08634064
629.463	0.08623231
629.661	0.08610852
629.858	0.08606805
630.056	0.08604122
630.253	0.08596302
630.451	0.08589202
630.648	0.08575891
630.845	0.08572352
631.043	0.08564718
631.24	0.08557631
631.438	0.08551887
631.635	0.08546636
631.832	0.08531917
632.029	0.08528942
632.227	0.08520327
632.424	0.08512327
632.621	0.08504561
632.818	0.08491166
633.016	0.08484136
633.213	0.08472748
633.41	0.084643
633.607	0.08453922
633.804	0.08444411
634.001	0.08432995
634.199	0.08424921
634.396	0.08413465
634.593	0.08406729
634.79	0.08397395
634.987	0.08390815
635.184	0.0838215
635.381	0.08378173
635.578	0.08378748
635.775	0.08372895
635.972	0.08366584
636.169	0.08357912
636.366	0.08350917
636.563	0.08342864
636.76	0.08332416
636.957	0.08318934
637.153	0.08301839
637.35	0.08293886
637.547	0.08286211
637.744	0.0827811
637.941	0.08269109
638.138	0.08262706
638.334	0.08250488
638.531	0.08251484
638.728	0.08239939
638.925	0.08233327
639.121	0.08219609
639.318	0.08208187
639.515	0.08195561
639.711	0.08186108
639.908	0.0816807
640.105	0.08161314
640.301	0.08147679
640.498	0.08134365
640.695	0.08123585
640.891	0.08110024
641.088	0.08102299
641.284	0.08098038
641.481	0.08087762
641.677	0.08074984
641.874	0.08069022
642.07	0.08057169
642.267	0.08047888
642.463	0.08036925
642.66	0.08028458
642.856	0.08014365
643.053	0.07996572
643.249	0.07982181
643.445	0.07974205
643.642	0.07967064
643.838	0.07957115
644.034	0.07942788
644.231	0.07932134
644.427	0.07925908
644.623	0.07923899
644.82	0.07914054
645.016	0.07898879
645.212	0.07882137
645.408	0.07871652
645.604	0.07866719
645.801	0.07859279
645.997	0.07840907
646.193	0.0783033
646.389	0.07823134
646.585	0.07809369
646.781	0.07796137
646.977	0.0777846
647.173	0.07763517
647.37	0.07748683
647.566	0.07732699
647.762	0.07722016
647.958	0.07716443
648.154	0.0770432
648.35	0.07694244
648.546	0.07681109
648.742	0.07672306
648.937	0.07651758
649.133	0.07638593
649.329	0.07629201
649.525	0.0761395
649.721	0.07599744
649.917	0.07594766
650.113	0.07580323
650.309	0.07580634
650.504	0.07563701
650.7	0.07546226
650.896	0.07540551
651.092	0.07530023
651.287	0.07516291
651.483	0.07513961
651.679	0.07503011
651.875	0.07499557
652.07	0.0749106
652.266	0.07477472
652.462	0.07466024
652.657	0.07449579
652.853	0.07431514
653.048	0.07416585
653.244	0.07393035
653.44	0.07378054
653.635	0.07359994
653.831	0.07348584
654.026	0.07341359
654.222	0.07327416
654.417	0.07315296
654.613	0.07307505
654.808	0.0729407
655.004	0.07288838
655.199	0.07270096
655.394	0.07251346
655.59	0.07241733
655.785	0.07225462
655.98	0.07215808
656.176	0.07199323
656.371	0.07184506
656.566	0.07175834
656.762	0.07161704
656.957	0.07148703
657.152	0.07134071
657.348	0.07117589
657.543	0.07110397
657.738	0.07096996
657.933	0.07083893
658.128	0.07073096
658.324	0.07054364
658.519	0.07044587
658.714	0.07035748
658.909	0.07017144
659.104	0.07005573
659.299	0.06993926
659.494	0.06979707
659.689	0.06968544
659.884	0.06954043
660.079	0.0693365
660.274	0.06922304
660.469	0.06909565
660.664	0.06892358
660.859	0.06881295
661.054	0.06867457
661.249	0.06852037
661.444	0.06841804
661.639	0.06825129
661.834	0.06810024
662.029	0.06802809
662.224	0.06788189
662.418	0.06780005
662.613	0.06774213
662.808	0.06762695
663.003	0.06756611
663.198	0.06745109
663.392	0.06729206
663.587	0.06717849
663.782	0.06695189
663.977	0.06676293
664.171	0.06666114
664.366	0.06653
664.561	0.06640385
664.755	0.06630444
664.95	0.06619409
665.144	0.06610879
665.339	0.06598123
665.534	0.06578686
665.728	0.06560159
665.923	0.0654481
666.117	0.06522738
666.312	0.06501777
666.506	0.06487137
666.701	0.06469465
666.895	0.06454644
667.09	0.06439788
667.284	0.06424525
667.479	0.06415523
667.673	0.06405586
667.867	0.06394986
668.062	0.06383807
668.256	0.06373004
668.45	0.06365793
668.645	0.06354748
668.839	0.06342976
669.033	0.06329229
669.228	0.06312748
669.422	0.06302213
669.616	0.0628883
669.81	0.06274544
670.004	0.06257526
670.199	0.06242587
670.393	0.0622886
670.587	0.06219409
670.781	0.06207202
670.975	0.06196291
671.169	0.06180223
671.363	0.0616781
671.558	0.06152394
671.752	0.06138514
671.946	0.06122367
672.14	0.06105968
672.334	0.06081728
672.528	0.06073075
672.722	0.06057137
672.916	0.06042345
673.11	0.06027875
673.304	0.06019994
673.497	0.06007917
673.691	0.06001982
673.885	0.05984059
674.079	0.0596998
674.273	0.05951851
674.467	0.05933711
674.661	0.05912945
674.854	0.05889031
675.048	0.05870589
675.242	0.05854075
675.436	0.05839412
675.629	0.05831189
675.823	0.05817962
676.017	0.0580636
676.211	0.05801079
676.404	0.05794694
676.598	0.05787505
676.792	0.05776443
676.985	0.05758414
677.179	0.05747682
677.372	0.05736148
677.566	0.0572831
677.76	0.05713523
677.953	0.05702143
678.147	0.05696015
678.34	0.05695208
678.534	0.05682373
678.727	0.05674158
678.921	0.05660715
679.114	0.0564677
679.307	0.05632697
679.501	0.05613925
679.694	0.05595532
679.888	0.05583623
680.081	0.05570835
680.274	0.05556901
680.468	0.05547128
680.661	0.0553534
680.854	0.05532162
681.048	0.05526004
681.241	0.05518029
681.434	0.05502329
681.627	0.05490986
681.821	0.05481251
682.014	0.05472276
682.207	0.05453056
682.4	0.0543471
682.593	0.05419023
682.786	0.05403798
682.98	0.05389221
683.173	0.05377286
683.366	0.05364046
683.559	0.05352388
683.752	0.05345593
683.945	0.05338002
684.138	0.05330093
684.331	0.05319662
684.524	0.05306901
684.717	0.05292637
684.91	0.05284218
685.103	0.05270796
685.296	0.0525991
685.489	0.05252016
685.682	0.05237485
685.874	0.05223822
686.067	0.05205971
686.26	0.05189816
686.453	0.05173944
686.646	0.05153636
686.839	0.05139793
687.031	0.05131137
687.224	0.05119275
687.417	0.05115814
687.61	0.05105497
687.802	0.05094776
687.995	0.05089546
688.188	0.05074422
688.38	0.05056862
688.573	0.0504158
688.766	0.05024968
688.958	0.05010089
689.151	0.05000177
689.343	0.04987538
689.536	0.04973977
689.729	0.04964263
689.921	0.04956498
690.114	0.04949283
690.306	0.04939656
690.499	0.04930068
690.691	0.04921989
690.884	0.04919167
691.076	0.04912272
691.268	0.04903741
691.461	0.04891176
691.653	0.04884593
691.846	0.04874017
692.038	0.04859019
692.23	0.04843158
692.423	0.0483122
692.615	0.0481389
692.807	0.04800826
692.999	0.04788242
693.192	0.04772348
693.384	0.04763473
693.576	0.04750384
693.768	0.04740067
693.961	0.04730811
694.153	0.04718104
694.345	0.04703656
694.537	0.04691146
694.729	0.04674917
694.921	0.04661419
695.113	0.04646623
695.305	0.04633259
695.498	0.04622854
695.69	0.04616064
695.882	0.04606357
696.074	0.04601215
696.266	0.04598693
696.458	0.04593537
696.65	0.0459185
696.842	0.04587429
697.033	0.04584047
697.225	0.0457879
697.417	0.04574919
697.609	0.0456305
697.801	0.04555926
697.993	0.04546318
698.185	0.04537695
698.376	0.04522589
698.568	0.04515497
698.76	0.04507271
698.952	0.0449716
699.144	0.04482704
699.335	0.04471452
699.527	0.04457749
699.719	0.04446313
699.91	0.04435281
700.102	0.04419887
700.294	0.04407677
700.485	0.04399247
700.677	0.04387426
700.869	0.04374895
701.06	0.0436445
701.252	0.04353307
701.443	0.04340963
701.635	0.04329614
701.826	0.04318986
702.018	0.04314723
702.209	0.0430803
702.401	0.04301129
702.592	0.04293412
702.784	0.04286623
702.975	0.04286453
703.166	0.04285508
703.358	0.04272591
703.549	0.04265571
703.741	0.04254837
703.932	0.04245392
704.123	0.04236447
704.315	0.04223972
704.506	0.042113
704.697	0.0420501
704.888	0.04198474
705.08	0.04190517
705.271	0.04181567
705.462	0.04173464
705.653	0.04163508
705.844	0.04148926
706.035	0.04133608
706.227	0.04120047
706.418	0.04113972
706.609	0.04107692
706.8	0.04099405
706.991	0.04094526
707.182	0.04090704
707.373	0.04083756
707.564	0.04077504
707.755	0.0406466
707.946	0.04055407
708.137	0.04045462
708.328	0.04030919
708.519	0.04020613
708.71	0.04012796
708.901	0.04003895
709.092	0.03996938
709.283	0.0398505
709.473	0.03977768
709.664	0.03973982
709.855	0.03967012
710.046	0.03964608
710.237	0.03960322
710.427	0.03954906
710.618	0.03950384
710.809	0.03944725
711	0.03935827
711.19	0.03925201
711.381	0.03919682
711.572	0.03908544
711.762	0.03904703
711.953	0.03896799
712.144	0.03893251
712.334	0.03890848
712.525	0.03884525
712.715	0.03873108
712.906	0.03869932
713.097	0.03862434
713.287	0.03861342
713.478	0.03845619
713.668	0.03836966
713.859	0.03841442
714.049	0.03835908
714.239	0.03825789
714.43	0.03808046
714.62	0.03787299
714.811	0.03779442
715.001	0.03769144
715.191	0.03751822
715.382	0.0373844
715.572	0.03732808
715.762	0.03729902
715.953	0.03729172
716.143	0.03722029
716.333	0.03708991
716.523	0.0369921
716.714	0.03695871
716.904	0.03686185
717.094	0.03684395
717.284	0.0368346
717.474	0.03681493
717.664	0.03683646
717.855	0.03680672
718.045	0.03675821
718.235	0.03673327
718.425	0.03667565
718.615	0.03658918
718.805	0.03653106
718.995	0.03649457
719.185	0.03643649
719.375	0.03640366
719.565	0.03637595
719.755	0.03632891
719.945	0.03627103
720.135	0.03622186
720.325	0.03616267
720.515	0.03613943
720.704	0.03613765
720.894	0.0361442
721.084	0.03612251
721.274	0.03607709
721.464	0.03601468
721.654	0.03597852
721.843	0.03590677
722.033	0.0358116
722.223	0.03567891
722.413	0.03553388
722.602	0.03546818
722.792	0.03541205
722.982	0.03528298
723.171	0.0352242
723.361	0.0351435
723.55	0.03510992
723.74	0.03512511
723.93	0.0351176
724.119	0.03509574
724.309	0.03505384
724.498	0.03504321
724.688	0.03499909
724.877	0.03491496
725.067	0.03484973
725.256	0.03471892
725.446	0.03466163
725.635	0.03463069
725.825	0.0345949
726.014	0.03462
726.203	0.03462658
726.393	0.03458663
726.582	0.03459623
726.771	0.03453144
726.961	0.03452715
727.15	0.03443142
727.339	0.0342939
727.529	0.03415864
727.718	0.03404754
727.907	0.0339146
728.096	0.03388117
728.286	0.0337808
728.475	0.03370607
728.664	0.03363932
728.853	0.03360443
729.042	0.03354841
729.231	0.033535
729.42	0.03344493
729.609	0.0334119
729.799	0.03344989
729.988	0.03340893
730.177	0.03337623
730.366	0.03334549
730.555	0.03331231
730.744	0.03326176
730.933	0.03317031
731.122	0.03305203
731.31	0.03297667
731.499	0.03287136
731.688	0.03282146
731.877	0.03273406
732.066	0.03268754
732.255	0.03266572
732.444	0.03261051
732.632	0.03263686
732.821	0.03267309
733.01	0.03265495
733.199	0.03257621
733.388	0.03252634
733.576	0.03247128
733.765	0.03244058
733.954	0.03232263
734.142	0.03221782
734.331	0.03211445
734.52	0.03213142
734.708	0.032081
734.897	0.03205393
735.086	0.03202217
735.274	0.0320624
735.463	0.03206466
735.651	0.03209865
735.84	0.03207088
736.028	0.0320742
736.217	0.03205695
736.405	0.03198863
736.594	0.0318822
736.782	0.03177943
736.971	0.03168677
737.159	0.03166395
737.347	0.0316254
737.536	0.03163861
737.724	0.0316366
737.912	0.03163385
738.101	0.03161591
738.289	0.0315787
738.477	0.03149347
738.666	0.03141433
738.854	0.03130323
739.042	0.03120936
739.23	0.03108129
739.418	0.0310426
739.607	0.03103313
739.795	0.0310472
739.983	0.03104119
740.171	0.03097895
740.359	0.03089574
740.547	0.03088124
740.735	0.03081334
740.923	0.03069734
741.112	0.03056793
741.3	0.03046155
741.488	0.03039305
741.676	0.03043484
741.864	0.03043211
742.052	0.03049453
742.239	0.03054657
742.427	0.03061333
742.615	0.03063357
742.803	0.03064658
742.991	0.03063543
743.179	0.03058604
743.367	0.03052534
743.555	0.03049761
743.742	0.03043332
743.93	0.03045001
744.118	0.03050909
744.306	0.0304806
744.494	0.03047898
744.681	0.03037403
744.869	0.03026065
745.057	0.03016918
745.244	0.03008952
745.432	0.03000303
745.62	0.02997851
745.807	0.02990116
745.995	0.02989745
746.182	0.02988777
746.37	0.02980564
746.558	0.02970674
746.745	0.02958351
746.933	0.02947657
747.12	0.02942619
747.308	0.02937555
747.495	0.02934797
747.683	0.02941556
747.87	0.02946437
748.057	0.02947491
748.245	0.0294623
748.432	0.02945294
748.62	0.02941363
748.807	0.02934031
748.994	0.02927788
749.182	0.02923151
749.369	0.02920376
749.556	0.02919703
749.743	0.02921335
749.931	0.02925241
750.118	0.02929405
750.305	0.02925827
750.492	0.02922057
750.68	0.02917926
750.867	0.02909287
751.054	0.0290263
751.241	0.0289464
751.428	0.02890889
751.615	0.02887469
751.802	0.02885659
751.989	0.02886531
752.176	0.02892684
752.363	0.02895081
752.55	0.02896656
752.737	0.02893003
752.924	0.0289535
753.111	0.02897604
753.298	0.02896051
753.485	0.02890328
753.672	0.02883378
753.859	0.02878201
754.046	0.02878292
754.233	0.02881038
754.42	0.02872467
754.606	0.02867805
754.793	0.0285942
754.98	0.02854869
755.167	0.02853093
755.353	0.02849543
755.54	0.02845269
755.727	0.02846659
755.914	0.02846
756.1	0.02849052
756.287	0.02845365
756.474	0.02838741
756.66	0.02832273
756.847	0.02823731
757.033	0.02812076
757.22	0.02801842
757.407	0.02791145
757.593	0.02792841
757.78	0.02788449
757.966	0.02784473
758.153	0.02780374
758.339	0.02779538
758.526	0.02777138
758.712	0.02774932
758.898	0.02772068
759.085	0.02773747
759.271	0.02778646
759.458	0.02782089
759.644	0.0278632
759.83	0.0278993
760.017	0.0279841
760.203	0.02800363
760.389	0.02801472
760.576	0.02798387
760.762	0.02793783
760.948	0.02784603
761.134	0.0277365
761.32	0.02758393
761.507	0.02751036
761.693	0.02746366
761.879	0.02741099
762.065	0.02739301
762.251	0.02743888
762.437	0.02745995
762.623	0.0275207
762.809	0.02748935
762.995	0.02745619
763.181	0.02741222
763.367	0.02734354
763.553	0.02729101
763.739	0.02727896
763.925	0.02726658
764.111	0.02725351
764.297	0.02715913
764.483	0.02704872
764.669	0.02702397
764.855	0.02694514
765.041	0.02692146
765.227	0.02688384
765.412	0.02683786
765.598	0.02686736
765.784	0.02697797
765.97	0.02699618
766.156	0.02700628
766.341	0.02693902
766.527	0.02691103
766.713	0.02688118
766.898	0.02689804
767.084	0.02686743
767.27	0.02683366
767.455	0.02684145
767.641	0.02687362
767.827	0.02694056
768.012	0.02697707
768.198	0.02702923
768.383	0.02703482
768.569	0.02694432
768.754	0.02690276
768.94	0.02689593
769.125	0.02676091
769.311	0.02670641
769.496	0.02656235
769.682	0.02648148
769.867	0.02648024
770.052	0.02645413
770.238	0.02636786
770.423	0.02632127
770.608	0.02628809
770.794	0.02627191
770.979	0.02622796
771.164	0.02618917
771.35	0.02616741
771.535	0.02618197
771.72	0.0261849
771.905	0.02618404
772.09	0.026116
772.276	0.02605937
772.461	0.0260549
772.646	0.02600826
772.831	0.02593773
773.016	0.02589121
773.201	0.02582164
773.386	0.02587172
773.571	0.02588214
773.756	0.02590102
773.941	0.02584281
774.126	0.02586572
774.311	0.02584908
774.496	0.02587992
774.681	0.02581727
774.866	0.02575706
775.051	0.02569465
775.236	0.02567683
775.421	0.02559809
775.606	0.02553745
775.791	0.02545499
775.976	0.02545728
776.16	0.02550878
776.345	0.02552363
776.53	0.02555371
776.715	0.02563057
776.899	0.02566692
777.084	0.02568186
777.269	0.02562712
777.454	0.02554809
777.638	0.02541983
777.823	0.0253592
778.008	0.02523427
778.192	0.02520518
778.377	0.0251808
778.561	0.02513037
778.746	0.02513131
778.931	0.02511048
779.115	0.0250451
779.3	0.02501937
779.484	0.02494767
779.669	0.02486178
779.853	0.02486474
780.037	0.02485233
780.222	0.02481804
780.406	0.02477546
780.591	0.02474271
780.775	0.02474965
780.959	0.02471001
781.144	0.02464688
781.328	0.02456959
781.512	0.02458917
781.697	0.02462979
781.881	0.02459514
782.065	0.02456252
782.249	0.02451955
782.434	0.0245998
782.618	0.02461895
782.802	0.02466567
782.986	0.02463727
783.17	0.0246451
783.354	0.02466033
783.539	0.02466428
783.723	0.02458548
783.907	0.02455754
784.091	0.02450153
784.275	0.02450931
784.459	0.02451774
784.643	0.02450981
784.827	0.02452308
785.011	0.0244778
785.195	0.02437512
785.379	0.0242453
785.563	0.02413814
785.747	0.02401478
785.93	0.02383588
786.114	0.02370197
786.298	0.0237155
786.482	0.02375388
786.666	0.02379196
786.85	0.02375729
787.033	0.02376188
787.217	0.02384391
787.401	0.02385782
787.585	0.02379732
787.768	0.02379034
787.952	0.02378503
788.136	0.02380353
788.319	0.02377925
788.503	0.02372553
788.687	0.02378434
788.87	0.0237937
789.054	0.02379734
789.237	0.02376282
789.421	0.02376041
789.605	0.02378654
789.788	0.02376861
789.972	0.02368982
790.155	0.02359337
790.338	0.02343791
790.522	0.02335812
790.705	0.02322829
790.889	0.02313155
791.072	0.02305151
791.256	0.02301009
791.439	0.02294826
791.622	0.02299173
791.806	0.02304113
791.989	0.02305033
792.172	0.02306743
792.355	0.02305833
792.539	0.02308799
792.722	0.02311499
792.905	0.02314505
793.088	0.02308411
793.271	0.0230966
793.455	0.02309881
793.638	0.02310211
793.821	0.02306658
794.004	0.02307585
794.187	0.02294553
794.37	0.02288946
794.553	0.02283508
794.736	0.02276324
794.919	0.0227232
795.102	0.02261843
795.285	0.02251886
795.468	0.02248142
795.651	0.02245363
795.834	0.02245713
796.017	0.02247716
796.2	0.02250295
796.383	0.02258234
796.566	0.0225807
796.749	0.02257173
796.931	0.02256534
797.114	0.02253999
797.297	0.0224245
797.48	0.02224131
797.663	0.02210751
797.845	0.0220633
798.028	0.02201796
798.211	0.0220434
798.393	0.02202047
798.576	0.02203245
798.759	0.02209819
798.941	0.02208437
799.124	0.02207318
799.307	0.02207826
799.489	0.02201232
799.672	0.02192819
799.854	0.02193368
800.037	0.02197839
800.219	0.02201103
800.402	0.02200711
800.584	0.02199529
800.767	0.02194701
800.949	0.02198575
801.132	0.02195818
801.314	0.02186209
801.496	0.02180661
801.679	0.02174047
801.861	0.02173328
802.043	0.02172982
802.226	0.02173318
802.408	0.02171308
802.59	0.02172365
802.772	0.02177751
802.955	0.02178354
803.137	0.02172863
803.319	0.02169986
803.501	0.02162032
803.684	0.02156068
803.866	0.02156322
804.048	0.02154568
804.23	0.02155878
804.412	0.02151958
804.594	0.02146581
804.776	0.02147598
804.958	0.0214801
805.14	0.02142106
805.322	0.0213764
805.504	0.0213243
805.686	0.02137176
805.868	0.02138141
806.05	0.02129355
806.232	0.02121294
806.414	0.0212032
806.596	0.02111345
806.778	0.02105096
806.96	0.02094536
807.141	0.02088427
807.323	0.02086472
807.505	0.02082284
807.687	0.02070331
807.869	0.02058104
808.05	0.02043974
808.232	0.0203197
808.414	0.0201942
808.595	0.02010621
808.777	0.020046
808.959	0.01999542
809.14	0.0200015
809.322	0.02001903
809.504	0.02003884
809.685	0.02007723
809.867	0.02009214
810.048	0.02017246
810.23	0.02023146
810.411	0.02024303
810.593	0.02029212
810.774	0.02032216
810.956	0.02033795
811.137	0.02031002
811.319	0.02027289
811.5	0.02018809
811.681	0.02016731
811.863	0.02017606
812.044	0.02017323
812.225	0.02020395
812.407	0.02025463
812.588	0.02022417
812.769	0.0202346
812.951	0.02016899
813.132	0.02002972
813.313	0.0199251
813.494	0.01974477
813.675	0.01961659
813.857	0.01954379
814.038	0.0195328
814.219	0.01953778
814.4	0.01955514
814.581	0.01955789
814.762	0.01958932
814.943	0.01956037
815.124	0.01950751
815.305	0.01936236
815.486	0.01929456
815.667	0.01926769
815.848	0.01925553
816.029	0.01917957
816.21	0.01918306
816.391	0.01917569
816.572	0.01921171
816.753	0.01922364
816.934	0.01915681
817.115	0.01911347
817.295	0.01913079
817.476	0.01914341
817.657	0.01912627
817.838	0.01904871
818.019	0.01898945
818.199	0.01897326
818.38	0.01894101
818.561	0.01891751
818.741	0.01878059
818.922	0.01866151
819.103	0.01871495
819.283	0.01860767
819.464	0.01859429
819.645	0.01857752
819.825	0.01856084
820.006	0.01858
820.186	0.01859752
820.367	0.01856406
820.547	0.01858798
820.728	0.01853095
820.908	0.01839841
821.089	0.0183258
821.269	0.01831598
821.45	0.01830937
821.63	0.0182274
821.81	0.01816303
821.991	0.01812568
822.171	0.01808191
822.351	0.01801503
822.532	0.0178902
822.712	0.01775687
822.892	0.01762722
823.072	0.01758226
823.253	0.01750546
823.433	0.01747625
823.613	0.0174956
823.793	0.01755047
823.973	0.01755785
824.154	0.01760265
824.334	0.01760886
824.514	0.01763337
824.694	0.01774034
824.874	0.01773345
825.054	0.01760593
825.234	0.01754691
825.414	0.01748406
825.594	0.01746817
825.774	0.01733077
825.954	0.01722053
826.134	0.01712868
826.314	0.01707364
826.494	0.01712281
826.674	0.01711073
826.854	0.01708968
827.033	0.01716272
827.213	0.01713525
827.393	0.01707009
827.573	0.01703375
827.753	0.01688677
827.932	0.01677488
828.112	0.01663309
828.292	0.01648575
828.472	0.0164533
828.651	0.01642705
828.831	0.01650593
829.011	0.01656113
829.19	0.01665245
829.37	0.01673698
829.549	0.01675976
829.729	0.01668945
829.909	0.01664674
830.088	0.01654776
830.268	0.01650498
830.447	0.01641991
830.627	0.01641241
830.806	0.01648307
830.986	0.01647238
831.165	0.01651671
831.344	0.01659885
831.524	0.01666073
831.703	0.01667475
831.883	0.01659038
832.062	0.01649806
832.241	0.01640421
832.421	0.01635731
832.6	0.01613146
832.779	0.01596187
832.958	0.01585082
833.138	0.01581365
833.317	0.01572836
833.496	0.01577152
833.675	0.01565339
833.854	0.01575267
834.034	0.0157243
834.213	0.01571675
834.392	0.01568593
834.571	0.01569543
834.75	0.01558484
834.929	0.01565579
835.108	0.01557489
835.287	0.01553809
835.466	0.01553768
835.645	0.01553184
835.824	0.01552097
836.003	0.01553856
836.182	0.01549654
836.361	0.01554685
836.54	0.01555726
836.719	0.01549148
836.897	0.0153642
837.076	0.01526859
837.255	0.01519442
837.434	0.01509007
837.613	0.01491886
837.791	0.01484291
837.97	0.01479328
838.149	0.01472876
838.328	0.01477115
838.506	0.01477064
838.685	0.01477476
838.864	0.01483986
839.042	0.01484002
839.221	0.0148127
839.4	0.01480604
839.578	0.01470313
839.757	0.01454767
839.935	0.01437703
840.114	0.01422184
840.292	0.01411183
840.471	0.0140743
840.649	0.01405256
840.828	0.0140973
841.006	0.01420637
841.185	0.01429084
841.363	0.01432116
841.541	0.01426931
841.72	0.014241
841.898	0.01417531
842.076	0.01404978
842.255	0.01394985
842.433	0.01383416
842.611	0.01375496
842.789	0.01378703
842.968	0.01374246
843.146	0.01376898
843.324	0.01380336
843.502	0.01387515
843.68	0.01395647
843.859	0.01399979
844.037	0.01396775
844.215	0.01398986
844.393	0.01388935
844.571	0.01386847
844.749	0.01375199
844.927	0.01363169
845.105	0.01355843
845.283	0.01350834
845.461	0.01341429
845.639	0.01345306
845.817	0.01348792
845.995	0.01356544
846.173	0.01365038
846.351	0.01360867
846.529	0.0136267
846.706	0.0136545
846.884	0.01359971
847.062	0.01339594
847.24	0.01321667
847.418	0.01308149
847.595	0.01302377
847.773	0.01297501
847.951	0.01288679
848.129	0.012842
848.306	0.01289055
848.484	0.0129559
848.662	0.01298266
848.839	0.01300539
849.017	0.01297848
849.194	0.01306248
849.372	0.01305335
849.549	0.01294636
849.727	0.01275614
849.905	0.01262516
850.082	0.01249347
850.26	0.01243589
850.437	0.0123202
850.614	0.01233204
850.792	0.01236336
850.969	0.01241387
851.147	0.01246821
851.324	0.01254751
851.501	0.01256617
851.679	0.01248196
851.856	0.01232895
852.033	0.01228078
852.211	0.01223233
852.388	0.01207174
852.565	0.01196961
852.742	0.01183988
852.92	0.01179249
853.097	0.0117804
853.274	0.01173491
853.451	0.01167298
853.628	0.0117616
853.805	0.01183416
853.982	0.0118098
854.159	0.01188519
854.336	0.0119308
854.514	0.01187994
854.691	0.01186496
854.868	0.01179647
855.045	0.01158348
855.221	0.01158899
855.398	0.01146095
855.575	0.01137035
855.752	0.01139363
855.929	0.01136857
856.106	0.01131222
856.283	0.01141924
856.46	0.01144148
856.637	0.01143415
856.813	0.01149943
856.99	0.01142833
857.167	0.01143947
857.344	0.01147072
857.52	0.01134682
857.697	0.01121645
857.874	0.01118228
858.05	0.01099879
858.227	0.0109612
858.404	0.01093391
858.58	0.01098321
858.757	0.01096316
858.933	0.01098764
859.11	0.01101517
859.287	0.01113265
859.463	0.01105517
859.64	0.0110171
859.816	0.01090404
859.993	0.01096708
860.169	0.01091722
860.345	0.01077974
860.522	0.01066553
860.698	0.01059167
860.875	0.0104546
861.051	0.01043628
861.227	0.01038946
861.404	0.01029787
861.58	0.01027339
861.756	0.01022125
861.932	0.01028049
862.109	0.01032146
862.285	0.01025749
862.461	0.01018381
862.637	0.01019932
862.813	0.01030076
862.99	0.01032481
863.166	0.01028876
863.342	0.01031785
863.518	0.01022188
863.694	0.01023546
863.87	0.01024715
864.046	0.01019467
864.222	0.01015318
864.398	0.01010077
864.574	0.01005771
864.75	0.01006243
864.926	0.00991933
865.102	0.00986324
865.278	0.00974979
865.454	0.00979036
865.63	0.00979077
865.805	0.00973991
865.981	0.00971345
866.157	0.00977317
866.333	0.00979033
866.509	0.00985472
866.684	0.00970367
866.86	0.00962976
867.036	0.00968581
867.212	0.00965783
867.387	0.00965031
867.563	0.00958549
867.739	0.00942273
867.914	0.0093701
868.09	0.00932286
868.265	0.00918426
868.441	0.00909845
868.617	0.00900773
868.792	0.00895842
868.968	0.00900721
869.143	0.00903932
869.319	0.00906244
869.494	0.0090596
869.67	0.00913038
869.845	0.00913608
870.02	0.00917938
870.196	0.00912533
870.371	0.00903769
870.546	0.008967
870.722	0.00889399
870.897	0.00878309
871.072	0.00874732
871.248	0.00866595
871.423	0.00869412
871.598	0.00866629
871.773	0.00871966
871.949	0.00881191
872.124	0.00892397
872.299	0.0090413
872.474	0.00909967
872.649	0.00913358
872.824	0.00927527
872.999	0.00934558
873.174	0.00925142
873.349	0.00914921
873.524	0.00900456
873.699	0.00891195
873.874	0.00884753
874.049	0.00878347
874.224	0.00861908
874.399	0.00857723
874.574	0.00852606
874.749	0.00849137
874.924	0.00831876
875.099	0.00815515
875.274	0.00806892
875.449	0.00807951
875.623	0.00797256
875.798	0.0079627
875.973	0.00786713
876.148	0.00790737
876.322	0.00792282
876.497	0.00786745
876.672	0.00790096
876.846	0.0080844
877.021	0.00817911
877.196	0.00828804
877.37	0.00844881
877.545	0.00853534
877.72	0.0086398
877.894	0.00867779
878.069	0.00851033
878.243	0.00828739
878.418	0.00812863
878.592	0.00791645
878.767	0.00776283
878.941	0.00760765
879.116	0.00733675
879.29	0.00728003
879.464	0.0073908
879.639	0.00733471
879.813	0.00744797
879.987	0.00758248
880.162	0.00754464
880.336	0.00754018
880.51	0.00762021
880.685	0.00758772
880.859	0.00770429
881.033	0.00762708
881.207	0.00732436
881.381	0.00729724
881.556	0.00734187
881.73	0.00723494
881.904	0.00718973
882.078	0.00710485
882.252	0.00701752
882.426	0.00711737
882.6	0.00718957
882.774	0.00714933
882.948	0.00718619
883.122	0.00705846
883.296	0.00698259
883.47	0.00691464
883.644	0.00692232
883.818	0.00677112
883.992	0.00674901
884.166	0.00666153
884.34	0.00666564
884.514	0.00661202
884.687	0.00661872
884.861	0.00662575
885.035	0.00670332
885.209	0.00676734
885.382	0.00684771
885.556	0.00698252
885.73	0.00712037
885.904	0.00723222
886.077	0.00723067
886.251	0.00729182
886.425	0.00718919
886.598	0.00715785
886.772	0.00704016
886.945	0.00701128
887.119	0.00685573
887.292	0.00676206
887.466	0.00667993
887.64	0.00670867
887.813	0.006624
887.986	0.00665832
888.16	0.00662509
888.333	0.00686762
888.507	0.00700036
888.68	0.00705896
888.854	0.00703362
889.027	0.00702878
889.2	0.00687781
889.374	0.00670387
889.547	0.0063993
889.72	0.00613198
889.893	0.00597697
890.067	0.00585394
890.24	0.00578062
890.413	0.00584813
890.586	0.00597201
890.759	0.00606581
890.933	0.00633439
891.106	0.00645638
891.279	0.00657789
891.452	0.00669
891.625	0.00659067
891.798	0.00646224
891.971	0.00631145
892.144	0.00601815
892.317	0.00576307
892.49	0.0056453
892.663	0.00551891
892.836	0.00547073
893.009	0.00546362
893.182	0.00550986
893.355	0.00568773
893.527	0.0057809
893.7	0.00588638
893.873	0.00601276
894.046	0.00614429
894.219	0.00626323
894.391	0.00632884
894.564	0.00616423
894.737	0.00603891
894.91	0.00592097
895.082	0.00570576
895.255	0.00542296
895.428	0.00524019
895.6	0.00504208
895.773	0.00504988
895.945	0.00501389
896.118	0.00501763
896.291	0.00498685
896.463	0.00520487
896.636	0.00521919
896.808	0.00527616
896.981	0.00527254
897.153	0.00530508
897.326	0.00517788
897.498	0.0052037
897.67	0.00499487
897.843	0.00495589
898.015	0.00486155
898.187	0.00479965
898.36	0.0048081
898.532	0.00490761
898.704	0.00490495
898.877	0.00500407
899.049	0.00511246
899.221	0.005248
899.393	0.0053891
899.566	0.00541049
899.738	0.00537198
899.91	0.00542078
900.082	0.00549477
900.254	0.00541966
900.426	0.00533692
900.598	0.00525941
900.77	0.00518075
900.942	0.00514771
901.114	0.00502866
901.286	0.00483577
901.458	0.00474843
901.63	0.00461932
901.802	0.00449727
901.974	0.00457274
902.146	0.00453765
902.318	0.00450963
902.49	0.0045769
902.662	0.00454192
902.834	0.00451311
903.005	0.00425037
903.177	0.00411545
903.349	0.00404772
903.521	0.00390359
903.693	0.0037798
903.864	0.00370645
904.036	0.00384137
904.208	0.00405093
904.379	0.00402859
904.551	0.00411062
904.723	0.00420035
904.894	0.00436892
905.066	0.00456273
905.237	0.00463921
905.409	0.00474022
905.58	0.00482695
905.752	0.00478786
905.923	0.00475853
906.095	0.00460342
906.266	0.00439928
906.438	0.00408325
906.609	0.00381382
906.78	0.00357211
906.952	0.00336549
907.123	0.00339831
907.295	0.00339772
907.466	0.00344411
907.637	0.00355638
907.808	0.00371791
907.98	0.00387619
908.151	0.0040795
908.322	0.00422861
908.493	0.00436714
908.665	0.00444497
908.836	0.00447819
909.007	0.00453219
909.178	0.00459479
909.349	0.00452187
909.52	0.00436633
909.691	0.00421484
909.862	0.00406326
910.033	0.00404508
910.204	0.00408496
910.375	0.00410509
910.546	0.00413813
910.717	0.00430242
910.888	0.00438782
911.059	0.00449423
911.23	0.00449393
911.401	0.00433247
911.572	0.00422989
911.742	0.00420256
911.913	0.00402208
912.084	0.00396961
912.255	0.00380291
912.426	0.00372828
912.596	0.00364537
912.767	0.00352526
912.938	0.00339636
913.108	0.00347432
913.279	0.00332574
913.45	0.00340862
913.62	0.00348893
913.791	0.00358247
913.962	0.00362239
914.132	0.0036138
914.303	0.00336625
914.473	0.00326391
914.644	0.00314397
914.814	0.00295655
914.985	0.00280775
915.155	0.00261673
915.326	0.00252363
915.496	0.00252035
915.666	0.00255985
915.837	0.00247582
916.007	0.00252956
916.177	0.00265111
916.348	0.00282422
916.518	0.00288887
916.688	0.00306653
916.858	0.00311336
917.029	0.00324034
917.199	0.00321634
917.369	0.00312542
917.539	0.0029699
917.709	0.00298498
917.88	0.00285202
918.05	0.00288758
918.22	0.00292318
918.39	0.00296558
918.56	0.00309115
918.73	0.00322856
918.9	0.00321351
919.07	0.00319757
919.24	0.00321271
919.41	0.0031322
919.58	0.00313528
919.75	0.00305097
919.92	0.00302503
920.09	0.003111
920.26	0.00314968
920.429	0.00315642
920.599	0.00319331
920.769	0.0031348
920.939	0.00325972
921.109	0.00332729
921.278	0.00334477
921.448	0.00339081
921.618	0.00327251
921.787	0.00329289
921.957	0.003307
922.127	0.00308158
922.296	0.00303008
922.466	0.00307313
922.636	0.00303989
922.805	0.00304857
922.975	0.00305751
923.144	0.00314247
923.314	0.00328095
923.483	0.00325205
923.653	0.00303499
923.822	0.00296971
923.992	0.00299192
924.161	0.00294222
924.331	0.00279591
924.5	0.00258227
924.669	0.0024696
924.839	0.00247017
925.008	0.00234036
925.177	0.00232079
925.347	0.00225926
925.516	0.0023841
925.685	0.00245056
925.854	0.00254328
926.023	0.00257459
926.193	0.0026669
926.362	0.00258544
926.531	0.00255643
926.7	0.00233598
926.869	0.00231969
927.038	0.00217017
927.207	0.00210372
927.376	0.00207478
927.545	0.00211613
927.715	0.00211607
927.884	0.00211365
928.052	0.00215563
928.221	0.00218909
928.39	0.00212635
928.559	0.0019292
928.728	0.00194884
928.897	0.00204727
929.066	0.00217483
929.235	0.00241236
929.404	0.00247386
929.572	0.00265067
929.741	0.00288928
929.91	0.00280893
930.079	0.0026705
930.247	0.00264723
930.416	0.00249016
930.585	0.00237814
930.753	0.00222314
930.922	0.00226215
931.091	0.00246044
931.259	0.00257958
931.428	0.00261945
931.596	0.00258314
931.765	0.00268655
931.934	0.00280349
932.102	0.00279249
932.27	0.00277252
932.439	0.00264036
932.607	0.00250264
932.776	0.0023732
932.944	0.00225947
933.113	0.00206534
933.281	0.00183989
933.449	0.00165515
933.618	0.00176049
933.786	0.00177978
933.954	0.00185821
934.123	0.00188653
934.291	0.00179897
934.459	0.00166755
934.627	0.00168252
934.795	0.0015398
934.964	0.00147502
935.132	0.00134756
935.3	0.00151323
935.468	0.00193313
935.636	0.00214011
935.804	0.00230279
935.972	0.00216707
936.14	0.00199782
936.308	0.00187425
936.476	0.00161858
936.644	0.00159651
936.812	0.00169748
936.98	0.00154764
937.148	0.00180711
937.316	0.00201716
937.484	0.00232238
937.652	0.00253394
937.82	0.00244359
937.987	0.0026635
938.155	0.00277917
938.323	0.00265502
938.491	0.00289436
938.658	0.00275547
938.826	0.00281166
938.994	0.00310693
939.162	0.00326782
939.329	0.0037577
939.497	0.00414263
939.665	0.00381961
939.832	0.00416592
940	0.00525221
940.167	0.00455553
940.335	0.00416847
940.502	0.0036606
940.67	0.00393284
940.837	0.00434017
941.005	0.00403251
941.172	0.00328788
941.34	0.00357715
941.507	0.00417898
941.674	0.00436619
941.842	0.00427336
942.009	0.0046301
942.177	0.00514979
942.344	0.0048642
942.511	0.00557864
942.678	0.00528694
942.846	0.00471092
943.013	0.00502316
943.18	0.00466873
943.347	0.00476688
943.514	0.00447295
943.682	0.0038026
943.849	0.00382996
944.016	0.00423189
944.183	0.00403169
944.35	0.00424307
944.517	0.00375373
944.684	0.00362363
944.851	0.00497921
945.018	0.00504824
945.185	0.00522024
945.352	0.00500249
945.519	0.00517027
945.686	0.00548269
945.853	0.00627567
946.02	0.00584066
946.187	0.00586647
946.353	0.00541681
946.52	0.00493426
946.687	0.00456022
946.854	0.00402476
947.021	0.00347468
947.187	0.00272095
947.354	0.00221373
947.521	0.00280506
947.687	0.0026018
947.854	0.00231228
948.021	0.00268808
948.187	0.00316597
948.354	0.00257505
948.52	0.0030841
948.687	0.00293719
948.854	0.00404499
949.02	0.00446452
949.187	0.00440432
949.353	0.00358997
949.52	0.00423908
949.686	0.00389108
949.852	0.00308866
950.019	0.00232326
950.185	0.00281036
950.352	0.00239933
950.518	0.00292869
950.684	0.00287626
950.851	0.00246832
951.017	0.00354723
951.183	0.00364726
951.349	0.00318816
951.516	0.00331697
951.682	0.0028601
951.848	0.00243306
952.014	0.0026841
952.18	0.00175216
952.346	0.00215225
952.512	0.00264237
952.679	0.00286387
952.845	0.00262648
953.011	0.00276359
953.177	0.0028166
953.343	0.00375277
953.509	0.00347266
953.675	0.00295597
953.841	0.00284742
954.007	0.00277488
954.172	0.00240134
954.338	0.00270982
954.504	0.00240766
954.67	0.00238244
954.836	0.00201639
955.002	0.00161475
955.167	0.00219983
955.333	0.00287506
955.499	0.00209004
955.665	0.00187947
955.83	0.00164895
955.996	0.00221636
956.162	0.00236829
956.327	0.00227943
956.493	0.00147145
956.659	0.00189882
956.824	0.00204516
956.99	0.00223934
957.155	0.00197651
957.321	0.00219905
957.486	0.00239185
957.652	0.00277745
957.817	0.00316988
957.983	0.0032767
958.148	0.00298801
958.314	0.00274463
958.479	0.00232532
958.644	0.00217757
958.81	0.00237069
958.975	0.0015996
959.14	0.00109248
959.306	0.00123953
959.471	0.0013511
959.636	0.00156632
959.801	0.00161421
959.967	0.00162836
960.132	0.00171495
960.297	0.00222505
960.462	0.00214763
960.627	0.00228298
960.792	0.00251112
960.957	0.00243558
961.123	0.00171254
961.288	0.00159503
961.453	0.00123559
961.618	0.00091072
961.783	0.00094151
961.948	0.00059013
962.113	0.00115526
962.277	0.00154037
962.442	0.00183912
962.607	0.00194989
962.772	0.00240253
962.937	0.00221669
963.102	0.00225686
963.267	0.00172184
963.431	0.0019688
963.596	0.00174765
963.761	0.00138998
963.926	0.00115721
964.09	0.00115646
964.255	0.00119492
964.42	0.0009103
964.584	0.00075373
964.749	0.0010345
964.914	0.00120408
965.078	0.00135607
965.243	0.00152587
965.407	0.00157889
965.572	0.00137457
965.736	0.00133177
965.901	0.00143783
966.065	0.0018193
966.23	0.0016703
966.394	0.00143609
966.559	0.00094107
966.723	0.00100656
966.887	0.00076852
967.052	0.00092679
967.216	0.000629
967.38	0.00066528
967.545	0.00043457
967.709	0.00103126
967.873	0.00152331
968.037	0.00180555
968.202	0.00133762
968.366	0.00108246
968.53	0.00106501
968.694	0.00125706
968.858	0.00111408
969.022	0.00100592
969.187	0.0008349
969.351	0.00097415
969.515	0.00156594
969.679	0.0016239
969.843	0.00164278
970.007	0.00186037
970.171	0.00155537
970.335	0.00130836
970.499	0.00101765
970.662	0.00081137
970.826	0.00048755
970.99	0.00073058
971.154	0.00060956
971.318	0.0007336
971.482	0.00097949
971.645	0.00136144
971.809	0.00120795
971.973	0.00154666
972.137	0.00120813
972.3	0.00106168
972.464	0.0011426
972.628	0.00133164
972.791	0.00102902
972.955	0.00129992
973.119	0.00107863
973.282	0.00148102
973.446	0.0015167
973.609	0.0013647
973.773	0.00132002
973.936	0.00119309
974.1	0.00086818
974.263	0.0009315
974.427	0.00060838
974.59	0.0005766
974.754	0.00072327
974.917	0.000528
975.08	0.00098451
975.244	0.00106366
975.407	0.00112201
975.57	0.00144886
975.734	0.00104873
975.897	0.00079151
976.06	0.00080367
976.223	0.00080141
976.387	0.00048807
976.55	0.00008523
976.713	-0.00001734
976.876	0.00047571
977.039	0.00045581
977.202	0.00055993
977.365	0.00028049
977.528	0.00028135
977.692	0.00081378
977.855	0.00066056
978.018	0.00063622
978.181	0.00079367
978.344	0.00087185
978.506	0.00099442
978.669	0.00122354
978.832	0.00107634
978.995	0.00117933
979.158	0.00151944
979.321	0.00162233
979.484	0.00168537
979.646	0.00151401
979.809	0.00143061
979.972	0.00135573
980.135	0.001522
980.297	0.00120748
980.46	0.00072831
980.623	0.00066593
980.786	0.00087002
980.948	0.00081068
981.111	0.00077804
981.273	0.0006605
981.436	0.00075475
981.599	0.00122554
981.761	0.00172913
981.924	0.00165012
982.086	0.002153
982.249	0.00193323
982.411	0.00171405
982.573	0.001592
982.736	0.00159003
982.898	0.00108925
983.061	0.00104211
983.223	0.00093697
983.385	0.00133952
983.548	0.00088806
983.71	0.00084959
983.872	0.00083358
984.034	0.00089238
984.197	0.00108231
984.359	0.00110266
984.521	0.00157556
984.683	0.00216335
984.845	0.00195959
985.008	0.00194353
985.17	0.00182491
985.332	0.00163216
985.494	0.00125652
985.656	0.00046597
985.818	0.00035109
985.98	0.00052469
986.142	0.00068801
986.304	0.00112537
986.466	0.0005248
986.628	0.00094053
986.79	0.00116884
986.952	0.00162291
987.113	0.00134835
987.275	0.0006178
987.437	0.00045324
987.599	0.00102216
987.761	0.00054809
987.922	0.00071461
988.084	0.0000481
988.246	0.00025463
988.408	0.00096936
988.569	0.00075236
988.731	0.00072257
988.893	0.00082219
989.054	0.00092894
989.216	0.00147804
989.377	0.00166976
989.539	0.00174193
989.701	0.00152288
989.862	0.00133358
990.024	0.00083531
990.185	0.00090537
990.347	0.00001939
990.508	-0.00015722
990.669	-0.00033426
990.831	-0.000103
990.992	0.00005506
991.154	0.00125609
991.315	0.00093687
991.476	0.0017026
991.638	0.00209938
991.799	0.00171161
991.96	0.00153397
992.121	0.00160692
992.283	0.00118217
992.444	0.00127482
992.605	0.00160637
992.766	0.00140994
992.927	0.00166739
993.088	0.00176649
993.249	0.00151311
993.41	0.00134411
993.572	0.00148479
993.733	0.00105336
993.894	0.00104743
994.055	0.00063931
994.216	0.0007955
994.376	0.00091201
994.537	0.00100653
994.698	0.00087754
994.859	0.00046696
995.02	0.0004295
995.181	0.00106376
995.342	0.00093532
995.503	0.00095438
995.663	0.00102381
995.824	0.00056184
995.985	0.00102682
996.146	0.00136134
996.306	0.00164025
996.467	0.0018285
996.628	0.00179763
996.788	0.00146641
996.949	0.00238957
997.11	0.00226816
997.27	0.00172795
997.431	0.00089085
997.591	0.00115959
997.752	0.0005905
997.912	0.00089899
998.073	-0.00011927
998.233	-0.00033137
998.394	-0.00016096
998.554	0.00008054
998.714	0.00014725
998.875	0.00024866
999.035	-0.00027314
999.196	0.00014149
999.356	-0.0004697
999.516	-0.00063739
999.676	0.00002316
999.837	-0.00048479
999.997	-0.00002446
1000.157	0.00002106
1000.317	0.00080285
1000.477	0.00155252
1000.638	0.00159743
1000.798	0.00116693
1000.958	0.00112484
1001.118	0.00145197
1001.278	0.00191394
1001.438	0.00182813
1001.598	0.00192728
1001.758	0.00159682
1001.918	0.00147968
1002.078	0.0011648
1002.238	0.00008525
1002.398	-0.00019302
1002.558	-0.00044753
1002.718	-0.00047769
1002.878	-0.00015484
1003.037	0.00002205
1003.197	-0.00007693
1003.357	0.00141259
1003.517	0.00206576
1003.677	0.00310065
1003.836	0.00284573
1003.996	0.00257226
1004.156	0.00324201
1004.315	0.00336694
1004.475	0.00354987
1004.635	0.00269603
1004.794	0.00177112
1004.954	0.00210877
1005.114	0.00259239
1005.273	0.00279616
1005.433	0.00249771
1005.592	0.00146587
1005.752	0.0023806
1005.911	0.00209547
1006.071	0.00129904
1006.23	0.00160605
1006.389	0.00106548
1006.549	0.00150096
1006.708	0.00240214
1006.868	0.00140751
1007.027	0.00122797
1007.186	0.00200264
1007.345	0.00210093
1007.505	0.00111512
1007.664	0.00177452
1007.823	0.00089007
1007.982	0.00083796
1008.142	0.0003032
1008.301	-0.00009445
1008.46	0.00075467
1008.619	0.00175218
1008.778	0.00065496
1008.937	0.00039714
1009.096	0.00102082
1009.255	0.00147407
1009.414	0.00202811
1009.573	0.00147773
1009.732	-0.00008215
1009.891	0.00034589
1010.05	0.00098503
1010.209	0.00109476
1010.368	0.0014956
1010.527	0.00103009
1010.686	0.00103657
1010.845	0.00208053
1011.003	0.00196212
1011.162	0.00270688
1011.321	0.00175936
1011.48	0.00207412
1011.638	0.00101084
1011.797	-0.00089322
1011.956	-0.00264421
1012.115	-0.00156019
1012.273	-0.00241258
1012.432	-0.00024432
1012.59	-0.00008669
1012.749	0.00078915
1012.908	0.00153806
1013.066	0.00346146
1013.225	0.00145335
1013.383	0.00282795
1013.542	0.00139824
1013.7	0.00038399
1013.859	0.00187653
1014.017	0.0018751
1014.175	0.00367447
1014.334	0.00482493
1014.492	0.00322006
1014.65	0.00456375
1014.809	0.00448969
1014.967	0.00415641
1015.125	0.00446141
1015.284	0.00211481
1015.442	0.00488297
1015.6	0.00634989
1015.758	0.00425265
1015.916	0.00399111
1016.075	0.00483546
1016.233	0.00473573
1016.391	0.00508193
1016.549	0.00242587
1016.707	0.00000934
1016.865	0.0009795
1017.023	0.00157354
1017.181	0.00113577
1017.339	0.00324782
1017.497	0.00326905
1017.655	0.00419577
1017.813	0.00634268
1017.971	0.00524948
1018.129	0.00561754
1018.286	0.00389515
1018.444	0.00344757
1018.602	0.00485967
1018.76	0.00447924
1018.918	0.0036614
1019.075	0.00302356
1019.233	0.00370661
1019.391	0.00521407
1019.549	0.00138641
1019.706	0.00048271
1019.864	0.00206157
1020.022	0.00296276
1020.179	0.00409258
1020.337	0.00718945
1020.494	0.00754854
1020.652	0.0080165
1020.809	0.00715236
1020.967	0.00526845
1021.124	0.0049313
1021.282	0.00488754
1021.439	0.00090178
1021.597	0.00104775
1021.754	0.00313417
1021.911	0.00061603
1022.069	0.00139925
1022.226	0.00006123
1022.384	-0.00054712
1022.541	-0.00136165
1022.698	-0.00199454
1022.855	0.00075701
1023.013	0.0048606
1023.17	0.00716539
1023.327	0.00889391
1023.484	0.00952631
1023.641	0.00872237
1023.798	0.0091091
1023.956	0.0046105
1024.113	0.00319671
1024.27	0.00288765
1024.427	0.00316449
1024.584	0.00354164
1024.741	0.00540718
1024.898	0.00512597
1025.055	0.0041614
1025.212	0.00439862
1025.369	0.00127401
1025.525	0.00245225
1025.682	0.00366963
1025.839	0.00576505
1025.996	0.00844276
1026.153	0.01109139
1026.31	0.01360752
1026.466	0.01435819
1026.623	0.01627193
1026.78	0.01374208
1026.937	0.00780179
1027.093	0.00321106
1027.25	-0.00113156
1027.407	-0.00159859
1027.563	-0.00645897
1027.72	-0.00976451
1027.876	-0.00579852
1028.033	-0.00340661
1028.19	-0.00517683
1028.346	-0.00275605
1028.503	-0.00482029
1028.659	0.00220077
1028.816	0.00171843
1028.972	0.00393332
1029.128	0.00665626
1029.285	0.01411338
1029.441	0.02172003
1029.598	0.02154771
1029.754	0.01809772
1029.91	0.01912667
1030.067	0.01602143
1030.223	0.01676192
1030.379	0.01187002
1030.535	0.01259005
1030.691	0.00991395
1030.848	0.00709311
1031.004	0.00501036
1031.16	0.00860593
1031.316	0.00581457
1031.472	0.00748102
1031.628	-0.00016545
1031.784	0.00371867
1031.94	0.01072871
1032.096	0.0135896
1032.252	0.00837286
1032.408	0.00633231
1032.564	0.00527721
1032.72	-0.00160476
1032.876	0.00587519
1033.032	0.00626969
1033.188	0.00588737
1033.344	0.00188005
1033.5	0.00081911
1033.655	-0.00046724
1033.811	0.01035442
1033.967	-0.00173792
