Data from 0_1_mm_pl_40pc_Absorbance__0__18-29-04-786.txt Node

Date: Wed Mar 01 18:29:04 CET 2023
User: Ange
Spectrometer: FLMT08341
Trigger mode: 0
Integration Time (sec): 1.000000E-2
Scans to average: 400
Electric dark correction enabled: true
Nonlinearity correction enabled: false
Boxcar width: 3
XAxis mode: Wavelengths
Number of Pixels in Spectrum: 3648
>>>>>Begin Spectral Data<<<<<
345.271	-0.00097038
345.487	-0.00908772
345.704	0.00085431
345.921	0.00913167
346.137	-0.01010744
346.354	-0.01240773
346.571	-0.0223601
346.787	-0.04366492
347.004	-0.02378574
347.22	0.0469219
347.437	0.10117583
347.653	-0.17462257
347.87	-0.13270045
348.086	-0.22450054
348.303	-0.73595738
348.519	0.04913461
348.736	0.0413706
348.952	0.03948535
349.169	0.03894133
349.385	0.04600413
349.601	0.04515443
349.818	0.04418984
350.034	0.04518041
350.251	0.04613299
350.467	0.04675875
350.683	0.04674161
350.9	0.04597584
351.116	0.04654003
351.332	0.0455061
351.549	0.04484308
351.765	0.0455074
351.981	0.04698047
352.197	0.04657612
352.414	0.04622191
352.63	0.0462741
352.846	0.04620731
353.062	0.04750596
353.278	0.04682285
353.495	0.04598024
353.711	0.04719721
353.927	0.04947016
354.143	0.04947362
354.359	0.04951058
354.575	0.04895145
354.792	0.05008727
355.008	0.04927154
355.224	0.04872114
355.44	0.04645956
355.656	0.0461679
355.872	0.04764479
356.088	0.04728143
356.304	0.04609211
356.52	0.04792132
356.736	0.04743584
356.952	0.04898073
357.168	0.04954884
357.384	0.05026746
357.6	0.05169901
357.816	0.05389125
358.032	0.05371001
358.248	0.05529576
358.464	0.05541305
358.679	0.05676963
358.895	0.05663367
359.111	0.05761015
359.327	0.05690608
359.543	0.05834697
359.759	0.05831035
359.974	0.05817198
360.19	0.05760281
360.406	0.05763953
360.622	0.05677727
360.838	0.05650849
361.053	0.05602772
361.269	0.05662207
361.485	0.05695758
361.701	0.05694048
361.916	0.05561631
362.132	0.05560643
362.348	0.05654974
362.563	0.05588651
362.779	0.0555905
362.995	0.05609164
363.21	0.05645095
363.426	0.05713329
363.641	0.05747419
363.857	0.05634001
364.073	0.05643554
364.288	0.056938
364.504	0.05779083
364.719	0.05832139
364.935	0.0572566
365.15	0.05663306
365.366	0.05737674
365.581	0.05719242
365.797	0.05776765
366.012	0.05693296
366.228	0.05639834
366.443	0.05681708
366.658	0.05863795
366.874	0.05857745
367.089	0.06018591
367.305	0.05996957
367.52	0.05969382
367.735	0.05992724
367.951	0.06071553
368.166	0.06054172
368.381	0.06202498
368.597	0.0615799
368.812	0.06278284
369.027	0.06437331
369.243	0.06406833
369.458	0.06558646
369.673	0.06541653
369.888	0.06442627
370.104	0.0646658
370.319	0.06378926
370.534	0.06297453
370.749	0.06385038
370.964	0.06343939
371.179	0.06371032
371.395	0.06428803
371.61	0.06443127
371.825	0.06501563
372.04	0.06583327
372.255	0.06521478
372.47	0.06492098
372.685	0.06521739
372.9	0.06521083
373.115	0.06610448
373.33	0.06592566
373.545	0.0653303
373.76	0.06629504
373.975	0.06627756
374.19	0.06471717
374.405	0.06446009
374.62	0.06387802
374.835	0.06428344
375.05	0.06507879
375.265	0.06576564
375.48	0.06600988
375.695	0.0682538
375.91	0.06981629
376.125	0.06996574
376.339	0.07039887
376.554	0.07041505
376.769	0.06998013
376.984	0.07095293
377.199	0.07095412
377.414	0.06964873
377.628	0.06984106
377.843	0.06965253
378.058	0.07001038
378.273	0.0699278
378.487	0.06937295
378.702	0.06990483
378.917	0.07082016
379.131	0.07112787
379.346	0.07048785
379.561	0.0703981
379.775	0.07070306
379.99	0.07095615
380.205	0.06969585
380.419	0.06974448
380.634	0.06873676
380.848	0.06959913
381.063	0.07009015
381.278	0.07010238
381.492	0.07003667
381.707	0.07117525
381.921	0.07127352
382.136	0.07349837
382.35	0.07358202
382.565	0.07293509
382.779	0.07356367
382.994	0.0738127
383.208	0.07346916
383.422	0.07393537
383.637	0.07280357
383.851	0.07340134
384.066	0.07411519
384.28	0.0740293
384.494	0.07404345
384.709	0.07462297
384.923	0.07474245
385.137	0.07526612
385.352	0.07503178
385.566	0.07466839
385.78	0.07471635
385.995	0.07459451
386.209	0.07482252
386.423	0.07513962
386.637	0.0754065
386.852	0.07534326
387.066	0.07622241
387.28	0.07631503
387.494	0.07698085
387.708	0.07706747
387.923	0.07705615
388.137	0.07753755
388.351	0.07809729
388.565	0.07841079
388.779	0.07890146
388.993	0.08005861
389.207	0.08066325
389.421	0.08076507
389.635	0.08031176
389.85	0.08018249
390.064	0.08021961
390.278	0.08018548
390.492	0.0795746
390.706	0.07924519
390.92	0.07948703
391.134	0.07996995
391.348	0.08058056
391.561	0.08041215
391.775	0.0803619
391.989	0.0806338
392.203	0.08105197
392.417	0.08098359
392.631	0.08195717
392.845	0.0820779
393.059	0.08313335
393.273	0.08357201
393.486	0.08355774
393.7	0.08348755
393.914	0.08382083
394.128	0.08299827
394.342	0.0832162
394.555	0.0825874
394.769	0.08285612
394.983	0.08284221
395.197	0.08311468
395.41	0.08317644
395.624	0.08344335
395.838	0.08311779
396.051	0.08383088
396.265	0.08393034
396.479	0.08437052
396.692	0.08448971
396.906	0.08428008
397.12	0.08405879
397.333	0.08429858
397.547	0.08387627
397.76	0.08369764
397.974	0.0836574
398.187	0.08334586
398.401	0.08419671
398.614	0.08454173
398.828	0.08463239
399.041	0.08466409
399.255	0.08479808
399.468	0.0848622
399.682	0.08550031
399.895	0.08557073
400.109	0.0854336
400.322	0.08532676
400.536	0.08520645
400.749	0.08573496
400.962	0.08607489
401.176	0.08592439
401.389	0.08544321
401.602	0.08561011
401.816	0.08573514
402.029	0.08612491
402.242	0.08601916
402.456	0.08564266
402.669	0.08551505
402.882	0.08547605
403.095	0.0859023
403.309	0.08614055
403.522	0.08632356
403.735	0.08630316
403.948	0.08652809
404.161	0.087009
404.375	0.08732388
404.588	0.08709727
404.801	0.08693633
405.014	0.08657337
405.227	0.08672061
405.44	0.08665617
405.653	0.08654737
405.866	0.08625451
406.079	0.08622592
406.293	0.08638684
406.506	0.08676609
406.719	0.0865978
406.932	0.08647441
407.145	0.08641367
407.358	0.08702362
407.571	0.08697846
407.784	0.08699804
407.996	0.08677332
408.209	0.08651704
408.422	0.08653408
408.635	0.08650664
408.848	0.08619569
409.061	0.08627915
409.274	0.086268
409.487	0.08627563
409.7	0.08637511
409.912	0.08637622
410.125	0.0862692
410.338	0.08618496
410.551	0.0858983
410.764	0.08572128
410.976	0.0855915
411.189	0.08570935
411.402	0.08566226
411.615	0.08592509
411.827	0.08582142
412.04	0.08597061
412.253	0.0859891
412.465	0.08609027
412.678	0.08580654
412.891	0.0856105
413.103	0.08489103
413.316	0.08455222
413.529	0.08450245
413.741	0.08447618
413.954	0.08423248
414.166	0.08414966
414.379	0.08432316
414.591	0.08454184
414.804	0.08461955
415.016	0.08444943
415.229	0.08398481
415.441	0.0838109
415.654	0.08371688
415.866	0.08364026
416.079	0.08349922
416.291	0.0832602
416.504	0.08319721
416.716	0.08320964
416.928	0.08322136
417.141	0.08304971
417.353	0.08260409
417.566	0.08248602
417.778	0.0823081
417.99	0.08189602
418.203	0.0815923
418.415	0.08158088
418.627	0.08146067
418.839	0.08140786
419.052	0.08158429
419.264	0.08168373
419.476	0.08161451
419.688	0.08163969
419.901	0.08136386
420.113	0.08118995
420.325	0.08116354
420.537	0.08053256
420.749	0.08034311
420.961	0.08010087
421.174	0.07990444
421.386	0.07940663
421.598	0.07925713
421.81	0.07893108
422.022	0.07875061
422.234	0.07858209
422.446	0.0784223
422.658	0.07829345
422.87	0.07810429
423.082	0.07785191
423.294	0.07766738
423.506	0.07739118
423.718	0.07699774
423.93	0.07670853
424.142	0.07629577
424.354	0.07610313
424.566	0.07590131
424.778	0.07569131
424.99	0.07544028
425.202	0.07518516
425.414	0.07504922
425.625	0.07476219
425.837	0.0745803
426.049	0.07442419
426.261	0.07413626
426.473	0.07407975
426.684	0.07378016
426.896	0.07344241
427.108	0.07320768
427.32	0.07304842
427.531	0.07291259
427.743	0.07268164
427.955	0.07222188
428.167	0.07204032
428.378	0.07187646
428.59	0.07174461
428.802	0.07152667
429.013	0.07100113
429.225	0.07048154
429.436	0.07027208
429.648	0.06997922
429.86	0.06966248
430.071	0.06936228
430.283	0.06885718
430.494	0.06836637
430.706	0.06834056
430.917	0.06796286
431.129	0.06767327
431.34	0.06744896
431.552	0.06722202
431.763	0.06696849
431.975	0.06716693
432.186	0.06680005
432.398	0.06665465
432.609	0.06629263
432.821	0.06595192
433.032	0.06556136
433.243	0.06527259
433.455	0.06485691
433.666	0.06451789
433.877	0.06428001
434.089	0.06398759
434.3	0.0636766
434.511	0.06330413
434.723	0.06309698
434.934	0.06254829
435.145	0.06235607
435.356	0.06198886
435.568	0.06173021
435.779	0.06156032
435.99	0.06142215
436.201	0.0612213
436.412	0.06109697
436.624	0.06090476
436.835	0.06071001
437.046	0.06052745
437.257	0.06022254
437.468	0.05995448
437.679	0.05939425
437.89	0.05909167
438.101	0.05867084
438.312	0.05824774
438.523	0.05796299
438.734	0.05753375
438.945	0.05709772
439.156	0.05694179
439.367	0.05665372
439.578	0.05647439
439.789	0.05623821
440	0.05578875
440.211	0.05542081
440.422	0.05502178
440.633	0.0546696
440.844	0.05416986
441.055	0.05368352
441.266	0.0532155
441.477	0.05288907
441.687	0.05256427
441.898	0.05232514
442.109	0.051929
442.32	0.05169501
442.531	0.05121652
442.741	0.05080584
442.952	0.05040247
443.163	0.05013067
443.374	0.04983573
443.584	0.04949599
443.795	0.04916835
444.006	0.04891728
444.216	0.04879555
444.427	0.04855884
444.638	0.04802071
444.848	0.04761674
445.059	0.04720042
445.27	0.04683829
445.48	0.04655499
445.691	0.04614063
445.901	0.04573947
446.112	0.04563707
446.323	0.04517195
446.533	0.04490362
446.744	0.04442053
446.954	0.04406296
447.165	0.04378055
447.375	0.04355454
447.586	0.04314828
447.796	0.04299087
448.006	0.04270653
448.217	0.04260247
448.427	0.04229209
448.638	0.04185783
448.848	0.04141703
449.058	0.04108477
449.269	0.04074903
449.479	0.04041847
449.689	0.04009456
449.9	0.03992946
450.11	0.03974252
450.32	0.03942687
450.531	0.03903647
450.741	0.03869121
450.951	0.0383321
451.161	0.03795844
451.372	0.03744912
451.582	0.03720474
451.792	0.03699438
452.002	0.03678908
452.212	0.03640076
452.422	0.03630652
452.633	0.03605705
452.843	0.03596706
453.053	0.03562481
453.263	0.03557889
453.473	0.03532072
453.683	0.03515781
453.893	0.0346511
454.103	0.03436122
454.313	0.03410437
454.523	0.03377899
454.733	0.03326128
454.943	0.03297966
455.153	0.03289775
455.363	0.03274078
455.573	0.03237301
455.783	0.03208155
455.993	0.03183624
456.203	0.03162008
456.413	0.03142307
456.623	0.03090607
456.833	0.03068528
457.042	0.03049069
457.252	0.03016822
457.462	0.02982719
457.672	0.02956982
457.882	0.02932301
458.091	0.02923699
458.301	0.02887543
458.511	0.02863041
458.721	0.02835461
458.931	0.02822411
459.14	0.02799633
459.35	0.02769422
459.56	0.02748805
459.769	0.02735707
459.979	0.02724789
460.189	0.02701766
460.398	0.0267488
460.608	0.0265563
460.817	0.02635429
461.027	0.02595991
461.237	0.02572688
461.446	0.02537524
461.656	0.02513937
461.865	0.02499719
462.075	0.02476414
462.284	0.02458781
462.494	0.02455633
462.703	0.02438276
462.913	0.02414755
463.122	0.02412715
463.332	0.02383215
463.541	0.02361692
463.751	0.02339665
463.96	0.023165
464.169	0.02307817
464.379	0.02306708
464.588	0.02275489
464.797	0.02267833
465.007	0.02247557
465.216	0.02238589
465.425	0.02222436
465.635	0.02198032
465.844	0.02172615
466.053	0.02150129
466.263	0.02130064
466.472	0.02119348
466.681	0.02091449
466.89	0.02072968
467.099	0.02047258
467.309	0.02036381
467.518	0.02026295
467.727	0.02004874
467.936	0.01985344
468.145	0.01975224
468.354	0.01969099
468.563	0.01961536
468.772	0.01946519
468.982	0.01942599
469.191	0.01938632
469.4	0.01933712
469.609	0.01929544
469.818	0.01910375
470.027	0.01897786
470.236	0.01884596
470.445	0.01866189
470.654	0.01848744
470.863	0.01835695
471.072	0.01813515
471.28	0.01789015
471.489	0.01772185
471.698	0.01758407
471.907	0.01739445
472.116	0.01729837
472.325	0.01709753
472.534	0.01701446
472.743	0.01694636
472.951	0.01696788
473.16	0.01686884
473.369	0.01685919
473.578	0.01672405
473.786	0.01670128
473.995	0.01656411
474.204	0.01650186
474.413	0.01633533
474.621	0.01624787
474.83	0.01606545
475.039	0.01606963
475.247	0.0159779
475.456	0.01587314
475.665	0.01578602
475.873	0.01567583
476.082	0.01562795
476.291	0.01561987
476.499	0.01552995
476.708	0.0154787
476.916	0.01547688
477.125	0.01545791
477.333	0.01550764
477.542	0.01539494
477.75	0.01522757
477.959	0.01502547
478.167	0.01488207
478.376	0.01472538
478.584	0.01465403
478.793	0.01447728
479.001	0.01435565
479.209	0.01432133
479.418	0.01428879
479.626	0.01426558
479.834	0.0142903
480.043	0.01416309
480.251	0.01415224
480.459	0.01415284
480.668	0.01413176
480.876	0.01411261
481.084	0.01400151
481.293	0.01391126
481.501	0.01385258
481.709	0.01370893
481.917	0.01363602
482.125	0.01354325
482.334	0.01351369
482.542	0.01352998
482.75	0.01342509
482.958	0.01343136
483.166	0.01343966
483.374	0.0134067
483.583	0.01340834
483.791	0.01334413
483.999	0.01332399
484.207	0.01343493
484.415	0.01338169
484.623	0.01333544
484.831	0.01324293
485.039	0.01319669
485.247	0.01319431
485.455	0.01318752
485.663	0.01307533
485.871	0.01302549
486.079	0.01305084
486.287	0.01307597
486.495	0.01305897
486.702	0.0130661
486.91	0.0130212
487.118	0.01300593
487.326	0.01305831
487.534	0.01303993
487.742	0.01306305
487.95	0.0130285
488.157	0.01291605
488.365	0.01288471
488.573	0.01289012
488.781	0.01288929
488.988	0.0127799
489.196	0.01284447
489.404	0.01287139
489.612	0.01289163
489.819	0.01292898
490.027	0.01296413
490.235	0.01293158
490.442	0.01303515
490.65	0.01299461
490.857	0.01299884
491.065	0.0130684
491.273	0.01305099
491.48	0.01304267
491.688	0.01304698
491.895	0.01306848
492.103	0.01300525
492.31	0.01305727
492.518	0.0130531
492.725	0.01304597
492.933	0.01300347
493.14	0.01299033
493.348	0.01294759
493.555	0.01302051
493.763	0.0129912
493.97	0.01300643
494.177	0.01299899
494.385	0.01308718
494.592	0.01309494
494.8	0.01313134
495.007	0.01308431
495.214	0.01305683
495.422	0.01306857
495.629	0.01308318
495.836	0.01308767
496.043	0.01317202
496.251	0.01320333
496.458	0.01323343
496.665	0.01336878
496.872	0.01340213
497.08	0.01342714
497.287	0.01343534
497.494	0.01343259
497.701	0.01351696
497.908	0.01363587
498.115	0.01361112
498.322	0.01364832
498.53	0.01374957
498.737	0.01381343
498.944	0.01384642
499.151	0.01387636
499.358	0.01384972
499.565	0.01389625
499.772	0.01398899
499.979	0.01401696
500.186	0.01402673
500.393	0.01412514
500.6	0.01409766
500.807	0.01422069
501.014	0.01429236
501.221	0.01432056
501.427	0.0143508
501.634	0.01445963
501.841	0.01449441
502.048	0.01455032
502.255	0.01457556
502.462	0.0146195
502.669	0.0146415
502.875	0.0147462
503.082	0.01471575
503.289	0.01475309
503.496	0.01480242
503.702	0.0148592
503.909	0.01493413
504.116	0.0149806
504.323	0.01495501
504.529	0.01505066
504.736	0.015103
504.943	0.01517678
505.149	0.01516877
505.356	0.01518765
505.563	0.01526032
505.769	0.01537183
505.976	0.01545091
506.182	0.01551414
506.389	0.01560486
506.595	0.01568565
506.802	0.01577889
507.008	0.01577327
507.215	0.01580787
507.421	0.0158182
507.628	0.01588344
507.834	0.01587326
508.041	0.01591715
508.247	0.01592041
508.454	0.01603777
508.66	0.01615763
508.866	0.0162689
509.073	0.01636172
509.279	0.01650188
509.486	0.01655614
509.692	0.01665315
509.898	0.01673804
510.105	0.01674242
510.311	0.0167934
510.517	0.01685623
510.723	0.01690031
510.93	0.01698534
511.136	0.01714373
511.342	0.01725123
511.548	0.0173737
511.754	0.01747099
511.961	0.01755557
512.167	0.01764202
512.373	0.01778736
512.579	0.01787838
512.785	0.01793977
512.991	0.0180174
513.197	0.01808479
513.404	0.01818126
513.61	0.01829459
513.816	0.0183794
514.022	0.01842584
514.228	0.01847239
514.434	0.0185291
514.64	0.01859957
514.846	0.01863341
515.052	0.01870441
515.258	0.01872197
515.464	0.01875816
515.669	0.01886402
515.875	0.01895207
516.081	0.01906822
516.287	0.01919128
516.493	0.01923996
516.699	0.01937921
516.905	0.01949149
517.111	0.01960736
517.316	0.01970714
517.522	0.0198336
517.728	0.01990452
517.934	0.02004867
518.139	0.02013802
518.345	0.02021371
518.551	0.02030845
518.757	0.02047298
518.962	0.02053304
519.168	0.02069875
519.374	0.02077871
519.579	0.02089915
519.785	0.02102288
519.991	0.02110177
520.196	0.02113522
520.402	0.02124488
520.607	0.02126514
520.813	0.02138414
521.018	0.02150015
521.224	0.02159442
521.429	0.02175145
521.635	0.02188263
521.84	0.0219922
522.046	0.02213024
522.251	0.02222882
522.457	0.02237147
522.662	0.0224791
522.868	0.02252574
523.073	0.02259843
523.279	0.02272
523.484	0.02284925
523.689	0.02295197
523.895	0.02300408
524.1	0.02309403
524.305	0.02320495
524.511	0.02337769
524.716	0.02346738
524.921	0.02353419
525.126	0.02367625
525.332	0.02379076
525.537	0.02395223
525.742	0.02408082
525.947	0.02417647
526.153	0.02427154
526.358	0.02443625
526.563	0.02457109
526.768	0.02467325
526.973	0.02477463
527.178	0.02490343
527.383	0.02500578
527.588	0.02518839
527.794	0.02526709
527.999	0.02536982
528.204	0.0254822
528.409	0.02561989
528.614	0.02573703
528.819	0.02587598
529.024	0.02593804
529.229	0.02608082
529.434	0.0262209
529.639	0.02638633
529.843	0.0265088
530.048	0.02668423
530.253	0.02681768
530.458	0.02698437
530.663	0.02711439
530.868	0.02722212
531.073	0.02735997
531.278	0.02749827
531.482	0.02760259
531.687	0.0277322
531.892	0.02786626
532.097	0.02799033
532.302	0.02812614
532.506	0.02826249
532.711	0.02838958
532.916	0.02852002
533.12	0.02869715
533.325	0.02884794
533.53	0.02897426
533.734	0.02911663
533.939	0.02923329
534.144	0.02936084
534.348	0.02948839
534.553	0.02959287
534.757	0.02972162
534.962	0.02989638
535.167	0.03005621
535.371	0.03020314
535.576	0.03035531
535.78	0.03054072
535.985	0.03069376
536.189	0.03084132
536.394	0.03095341
536.598	0.0310943
536.803	0.03121303
537.007	0.031347
537.211	0.03146297
537.416	0.03159631
537.62	0.03174455
537.825	0.03195044
538.029	0.03207012
538.233	0.03226166
538.438	0.03240916
538.642	0.03253593
538.846	0.03269214
539.05	0.03286274
539.255	0.03298487
539.459	0.0331776
539.663	0.03334817
539.867	0.03351914
540.072	0.03371688
540.276	0.0338569
540.48	0.03398218
540.684	0.03412119
540.888	0.03420641
541.092	0.03435638
541.297	0.03448619
541.501	0.03462394
541.705	0.03479794
541.909	0.03495412
542.113	0.03507899
542.317	0.03532199
542.521	0.03541324
542.725	0.03561268
542.929	0.03575563
543.133	0.03592258
543.337	0.03608877
543.541	0.0362947
543.745	0.03637594
543.949	0.03656566
544.153	0.03672811
544.357	0.03691484
544.56	0.03706969
544.764	0.03722534
544.968	0.03739681
545.172	0.0375712
545.376	0.03775318
545.58	0.03789476
545.783	0.03801739
545.987	0.03817645
546.191	0.03835756
546.395	0.0385159
546.598	0.03870819
546.802	0.0388792
547.006	0.03906295
547.21	0.03925777
547.413	0.03942378
547.617	0.03958892
547.821	0.03979645
548.024	0.03999132
548.228	0.04014612
548.431	0.04033619
548.635	0.04056651
548.839	0.04073256
549.042	0.04090686
549.246	0.04104848
549.449	0.04120864
549.653	0.04141672
549.856	0.04159559
550.06	0.04172119
550.263	0.04194987
550.467	0.04213062
550.67	0.04228377
550.874	0.04244537
551.077	0.04259883
551.28	0.04277499
551.484	0.04295609
551.687	0.04310608
551.891	0.04331756
552.094	0.04353487
552.297	0.04370416
552.501	0.04388818
552.704	0.04406414
552.907	0.04424883
553.11	0.04443237
553.314	0.04458798
553.517	0.04475589
553.72	0.04497229
553.923	0.04516349
554.127	0.04533798
554.33	0.04550503
554.533	0.04568945
554.736	0.04583967
554.939	0.04604699
555.142	0.04624546
555.345	0.04643873
555.549	0.04659098
555.752	0.04676502
555.955	0.0468991
556.158	0.04715229
556.361	0.04731622
556.564	0.04746391
556.767	0.0476506
556.97	0.04786239
557.173	0.0480689
557.376	0.04828037
557.579	0.04844232
557.782	0.04862897
557.984	0.04883874
558.187	0.0489946
558.39	0.04916739
558.593	0.04936057
558.796	0.04959276
558.999	0.04978002
559.202	0.04996232
559.404	0.05015014
559.607	0.05035648
559.81	0.05052905
560.013	0.05072124
560.216	0.05090213
560.418	0.05110386
560.621	0.05134279
560.824	0.05157537
561.026	0.05178169
561.229	0.05205115
561.432	0.05227904
561.634	0.05248531
561.837	0.05269149
562.04	0.05286314
562.242	0.05301697
562.445	0.05321925
562.647	0.05336885
562.85	0.05351983
563.053	0.05369839
563.255	0.0539075
563.458	0.05409369
563.66	0.05428347
563.863	0.0544745
564.065	0.05463368
564.268	0.05485565
564.47	0.05505385
564.672	0.05520225
564.875	0.05540308
565.077	0.05562815
565.28	0.05582834
565.482	0.05610658
565.684	0.05629532
565.887	0.05647713
566.089	0.05669928
566.291	0.0569234
566.494	0.0571181
566.696	0.05729438
566.898	0.05744295
567.1	0.05764214
567.303	0.05784066
567.505	0.05801395
567.707	0.05814858
567.909	0.05833065
568.111	0.05855965
568.314	0.05874463
568.516	0.05895578
568.718	0.05917931
568.92	0.05938023
569.122	0.05961651
569.324	0.05980765
569.526	0.05992456
569.728	0.0601523
569.93	0.06033191
570.132	0.06049085
570.334	0.06065583
570.536	0.06084735
570.738	0.0610404
570.94	0.06123302
571.142	0.06143695
571.344	0.06161387
571.546	0.0617844
571.748	0.06202608
571.95	0.06218884
572.152	0.06237578
572.354	0.06266376
572.555	0.06286245
572.757	0.06302447
572.959	0.06321494
573.161	0.06337296
573.363	0.06355014
573.564	0.06375742
573.766	0.06390414
573.968	0.06409891
574.17	0.06432558
574.371	0.06451772
574.573	0.06467332
574.775	0.06489218
574.976	0.06506951
575.178	0.06524355
575.38	0.06545922
575.581	0.06565145
575.783	0.06588852
575.985	0.06612833
576.186	0.06634646
576.388	0.06653181
576.589	0.06675182
576.791	0.0669411
576.992	0.06714123
577.194	0.06735184
577.395	0.06758031
577.597	0.06777807
577.798	0.06803687
578	0.06821486
578.201	0.06838032
578.402	0.06859356
578.604	0.06873109
578.805	0.06888668
579.007	0.06908071
579.208	0.06923734
579.409	0.06940216
579.611	0.06956409
579.812	0.06973955
580.013	0.06996511
580.215	0.07014171
580.416	0.07030054
580.617	0.07045973
580.818	0.07067493
581.019	0.07089982
581.221	0.07107736
581.422	0.07124617
581.623	0.07148469
581.824	0.07164335
582.025	0.07183747
582.226	0.0720257
582.428	0.07224239
582.629	0.07245319
582.83	0.07264153
583.031	0.07279087
583.232	0.07301273
583.433	0.07324112
583.634	0.0734132
583.835	0.07354163
584.036	0.07369131
584.237	0.07385682
584.438	0.07402806
584.639	0.07419651
584.84	0.07436908
585.041	0.07456156
585.242	0.07476908
585.442	0.07494484
585.643	0.07517468
585.844	0.0753756
586.045	0.07557043
586.246	0.07572646
586.447	0.07587347
586.647	0.07602104
586.848	0.0761938
587.049	0.07634504
587.25	0.07650445
587.45	0.07669988
587.651	0.07687232
587.852	0.07706992
588.053	0.07727982
588.253	0.07747529
588.454	0.07766513
588.655	0.07781122
588.855	0.07793293
589.056	0.07808317
589.256	0.07825403
589.457	0.07842114
589.658	0.07859374
589.858	0.07873742
590.059	0.07897514
590.259	0.07917511
590.46	0.07936907
590.66	0.07953789
590.861	0.07969048
591.061	0.07985594
591.262	0.08005607
591.462	0.08015843
591.662	0.08032308
591.863	0.08048738
592.063	0.0806579
592.264	0.08083882
592.464	0.08096211
592.664	0.08109598
592.865	0.08131224
593.065	0.08143713
593.265	0.08161934
593.465	0.08173461
593.666	0.08188179
593.866	0.08208954
594.066	0.08225897
594.266	0.08240009
594.467	0.08259466
594.667	0.08267689
594.867	0.08289797
595.067	0.08301851
595.267	0.08312246
595.467	0.08324598
595.668	0.08333352
595.868	0.08349778
596.068	0.08370049
596.268	0.08379968
596.468	0.08395942
596.668	0.08409532
596.868	0.08427871
597.068	0.08446492
597.268	0.08459856
597.468	0.08470708
597.668	0.08489467
597.868	0.08505782
598.068	0.08524227
598.268	0.08536324
598.467	0.08557846
598.667	0.08566211
598.867	0.08578084
599.067	0.08589522
599.267	0.08600457
599.467	0.0861366
599.667	0.08626342
599.866	0.08634391
600.066	0.08652702
600.266	0.08666776
600.466	0.08682197
600.665	0.08695072
600.865	0.0870741
601.065	0.08720296
601.264	0.08729065
601.464	0.08737237
601.664	0.087537
601.863	0.08761779
602.063	0.08775511
602.263	0.08783286
602.462	0.08796406
602.662	0.08809605
602.861	0.08826762
603.061	0.08833829
603.26	0.08846625
603.46	0.08854107
603.659	0.08867871
603.859	0.08875523
604.058	0.08885871
604.258	0.08896062
604.457	0.08914549
604.657	0.08920515
604.856	0.08932338
605.056	0.08946188
605.255	0.08957639
605.454	0.0897222
605.654	0.08978362
605.853	0.08984122
606.052	0.08998737
606.252	0.0901467
606.451	0.09025965
606.65	0.09040408
606.849	0.09047113
607.049	0.09060694
607.248	0.09072017
607.447	0.09080759
607.646	0.09086019
607.845	0.09095343
608.045	0.09099655
608.244	0.09114982
608.443	0.09123609
608.642	0.09135778
608.841	0.09143227
609.04	0.09149702
609.239	0.09155238
609.438	0.09162241
609.637	0.09166329
609.836	0.09174606
610.035	0.0918186
610.234	0.09194438
610.433	0.09204084
610.632	0.09216608
610.831	0.09233061
611.03	0.09242341
611.229	0.0925346
611.428	0.09256469
611.627	0.09264279
611.826	0.09281607
612.025	0.09294885
612.224	0.09301328
612.422	0.09312449
612.621	0.09319472
612.82	0.09333936
613.019	0.09343316
613.218	0.09349284
613.416	0.09348696
613.615	0.0936289
613.814	0.09372747
614.012	0.09380159
614.211	0.0938635
614.41	0.09397248
614.608	0.0940143
614.807	0.09413882
615.006	0.09417827
615.204	0.09417179
615.403	0.0942444
615.602	0.0943334
615.8	0.09443279
615.999	0.09448985
616.197	0.09454719
616.396	0.09463298
616.594	0.0947436
616.793	0.0948421
616.991	0.09487915
617.19	0.09483391
617.388	0.09496502
617.586	0.09506558
617.785	0.09512504
617.983	0.09515103
618.182	0.09519153
618.38	0.09524545
618.578	0.09535232
618.777	0.09538212
618.975	0.09541572
619.173	0.0954542
619.372	0.09555354
619.57	0.09559505
619.768	0.09569314
619.966	0.09581641
620.165	0.09583612
620.363	0.09592256
620.561	0.09591444
620.759	0.09597213
620.957	0.09605588
621.155	0.09612396
621.354	0.09610429
621.552	0.09622482
621.75	0.09620142
621.948	0.09634378
622.146	0.09639297
622.344	0.09642689
622.542	0.09648398
622.74	0.096535
622.938	0.09648432
623.136	0.09659218
623.334	0.09663383
623.532	0.09659946
623.73	0.09663151
623.928	0.09666824
624.126	0.09674116
624.324	0.09686388
624.522	0.09684236
624.719	0.09680805
624.917	0.09690158
625.115	0.09688299
625.313	0.0968767
625.511	0.09696205
625.708	0.09692112
625.906	0.09698788
626.104	0.09706183
626.302	0.09715538
626.499	0.09725256
626.697	0.09732802
626.895	0.09724135
627.093	0.09733353
627.29	0.09738865
627.488	0.09742216
627.686	0.09745972
627.883	0.097473
628.081	0.09745418
628.278	0.09760063
628.476	0.09756454
628.673	0.09759391
628.871	0.09763429
629.068	0.09759072
629.266	0.09765128
629.463	0.09766325
629.661	0.09758858
629.858	0.09761322
630.056	0.09758507
630.253	0.0975375
630.451	0.09755598
630.648	0.09751342
630.845	0.0974985
631.043	0.09755336
631.24	0.09762772
631.438	0.09765743
631.635	0.09770683
631.832	0.09771776
632.029	0.0978086
632.227	0.09787205
632.424	0.09789616
632.621	0.0978858
632.818	0.0978846
633.016	0.09792288
633.213	0.09791099
633.41	0.09790828
633.607	0.09788923
633.804	0.09790076
634.001	0.09784431
634.199	0.09788923
634.396	0.09784056
634.593	0.09787395
634.79	0.09787984
634.987	0.09794378
635.184	0.09792884
635.381	0.09806614
635.578	0.09808714
635.775	0.09814499
635.972	0.09816854
636.169	0.09814339
636.366	0.09807358
636.563	0.09808327
636.76	0.09797968
636.957	0.0979504
637.153	0.09789552
637.35	0.09788426
637.547	0.09790644
637.744	0.09793508
637.941	0.09796408
638.138	0.09801936
638.334	0.09796945
638.531	0.09800013
638.728	0.09798948
638.925	0.09801657
639.121	0.09798708
639.318	0.09795699
639.515	0.09787377
639.711	0.09796948
639.908	0.09797446
640.105	0.09796355
640.301	0.09794462
640.498	0.09795516
640.695	0.0979679
640.891	0.09797842
641.088	0.09791442
641.284	0.09786219
641.481	0.09786702
641.677	0.09783864
641.874	0.097807
642.07	0.0977949
642.267	0.09782845
642.463	0.09783492
642.66	0.09787868
642.856	0.09781344
643.053	0.09773595
643.249	0.09774549
643.445	0.0977138
643.642	0.09767914
643.838	0.09764293
644.034	0.09760766
644.231	0.09763189
644.427	0.09765626
644.623	0.09765143
644.82	0.09765418
645.016	0.09761655
645.212	0.09754007
645.408	0.0975037
645.604	0.09752282
645.801	0.09750589
645.997	0.09747011
646.193	0.09739916
646.389	0.09741766
646.585	0.09742899
646.781	0.09744977
646.977	0.09737102
647.173	0.0973255
647.37	0.097266
647.566	0.09731045
647.762	0.09725751
647.958	0.0972826
648.154	0.09719091
648.35	0.09720515
648.546	0.09718756
648.742	0.09722591
648.937	0.09707129
649.133	0.09709415
649.329	0.09705967
649.525	0.09708343
649.721	0.09704427
649.917	0.09705853
650.113	0.09699994
650.309	0.0971083
650.504	0.09700115
650.7	0.09692606
650.896	0.09687481
651.092	0.09682993
651.287	0.09678166
651.483	0.09681988
651.679	0.09673693
651.875	0.09681146
652.07	0.09679333
652.266	0.09677901
652.462	0.09677458
652.657	0.09674603
652.853	0.09666984
653.048	0.09663071
653.244	0.09652143
653.44	0.09649164
653.635	0.09642001
653.831	0.09637573
654.026	0.09637561
654.222	0.09634772
654.417	0.09632169
654.613	0.0962996
654.808	0.09624789
655.004	0.09622126
655.199	0.09616934
655.394	0.09609878
655.59	0.09610663
655.785	0.09611791
655.98	0.09611966
656.176	0.09609422
656.371	0.09616067
656.566	0.09619685
656.762	0.09616109
656.957	0.0961012
657.152	0.09602775
657.348	0.0959709
657.543	0.09597459
657.738	0.09592613
657.933	0.09585347
658.128	0.09579069
658.324	0.09573259
658.519	0.09569334
658.714	0.09566428
658.909	0.09561883
659.104	0.09555955
659.299	0.09548044
659.494	0.09546856
659.689	0.09545328
659.884	0.09542577
660.079	0.09539988
660.274	0.09539734
660.469	0.09534448
660.664	0.09533994
660.859	0.09531512
661.054	0.09527244
661.249	0.09522309
661.444	0.09520546
661.639	0.09514591
661.834	0.09512188
662.029	0.0951328
662.224	0.09517216
662.418	0.09517105
662.613	0.09516294
662.808	0.09510168
663.003	0.09505799
663.198	0.09501178
663.392	0.09492916
663.587	0.09489278
663.782	0.09478088
663.977	0.09476485
664.171	0.09471142
664.366	0.09468533
664.561	0.09467078
664.755	0.09468456
664.95	0.09459786
665.144	0.09461104
665.339	0.09458166
665.534	0.09456553
665.728	0.09455401
665.923	0.09448343
666.117	0.09439953
666.312	0.0943695
666.506	0.09439752
666.701	0.09435887
666.895	0.09429618
667.09	0.09422128
667.284	0.09426183
667.479	0.09427737
667.673	0.09425396
667.867	0.09419564
668.062	0.09414416
668.256	0.09413852
668.45	0.0941492
668.645	0.09409298
668.839	0.09404284
669.033	0.09397039
669.228	0.09390413
669.422	0.09390179
669.616	0.09387375
669.81	0.0938845
670.004	0.09381163
670.199	0.09379603
670.393	0.09375811
670.587	0.09375704
670.781	0.09368083
670.975	0.09367356
671.169	0.09356543
671.363	0.09357113
671.558	0.09353836
671.752	0.09356691
671.946	0.09352876
672.14	0.09351404
672.334	0.09348298
672.528	0.09353511
672.722	0.09346439
672.916	0.09344961
673.11	0.09336792
673.304	0.09335171
673.497	0.09332859
673.691	0.09330577
673.885	0.09325593
674.079	0.09327378
674.273	0.09318713
674.467	0.09321263
674.661	0.09320054
674.854	0.09321082
675.048	0.09318481
675.242	0.09314417
675.436	0.09308114
675.629	0.09310234
675.823	0.09302779
676.017	0.09299519
676.211	0.09290982
676.404	0.09290797
676.598	0.09286765
676.792	0.0928427
676.985	0.0928611
677.179	0.09287124
677.372	0.09282179
677.566	0.09283678
677.76	0.09283557
677.953	0.09284041
678.147	0.09287421
678.34	0.09286328
678.534	0.09282722
678.727	0.09283089
678.921	0.09284539
679.114	0.09280494
679.307	0.09279788
679.501	0.09276077
679.694	0.09273177
679.888	0.09272452
680.081	0.0927195
680.274	0.0926344
680.468	0.09260281
680.661	0.09257616
680.854	0.09262454
681.048	0.0926208
681.241	0.09259451
681.434	0.09257314
681.627	0.0926473
681.821	0.09266413
682.014	0.09270996
682.207	0.09262876
682.4	0.09259031
682.593	0.09260655
682.786	0.09257755
682.98	0.09252778
683.173	0.092553
683.366	0.09250328
683.559	0.09248318
683.752	0.09247902
683.945	0.0924907
684.138	0.09252262
684.331	0.09250848
684.524	0.09246667
684.717	0.09239711
684.91	0.0924503
685.103	0.09240518
685.296	0.09239851
685.489	0.09241126
685.682	0.09241066
685.874	0.09236691
686.067	0.09236798
686.26	0.09234088
686.453	0.0923392
686.646	0.09230241
686.839	0.09224029
687.031	0.09225052
687.224	0.09226173
687.417	0.09232981
687.61	0.09233819
687.802	0.092341
687.995	0.09235019
688.188	0.09233948
688.38	0.0923041
688.573	0.0923068
688.766	0.0922684
688.958	0.09223265
689.151	0.09222001
689.343	0.09222313
689.536	0.09223724
689.729	0.09223692
689.921	0.09227058
690.114	0.09225758
690.306	0.09227623
690.499	0.09229413
690.691	0.09230506
690.884	0.09228724
691.076	0.09232433
691.268	0.09230494
691.461	0.09228952
691.653	0.09229069
691.846	0.09231422
692.038	0.09230776
692.23	0.09228682
692.423	0.0922619
692.615	0.09223984
692.807	0.09224789
692.999	0.09224949
693.192	0.09221698
693.384	0.09221962
693.576	0.09223676
693.768	0.09226452
693.961	0.09226744
694.153	0.0923009
694.345	0.09229385
694.537	0.09231707
694.729	0.09235217
694.921	0.09235714
695.113	0.09233733
695.305	0.09231301
695.498	0.09225275
695.69	0.09225316
695.882	0.09223849
696.074	0.09223497
696.266	0.09223993
696.458	0.09223748
696.65	0.0922889
696.842	0.09233337
697.033	0.09235778
697.225	0.09238645
697.417	0.09240076
697.609	0.09245752
697.801	0.09248424
697.993	0.09250793
698.185	0.09254918
698.376	0.09260167
698.568	0.09262323
698.76	0.09262758
698.952	0.09261825
699.144	0.09260225
699.335	0.09259405
699.527	0.09258232
699.719	0.09257944
699.91	0.09261123
700.102	0.09260761
700.294	0.09265085
700.485	0.09266926
700.677	0.09268114
700.869	0.09270598
701.06	0.09271886
701.252	0.09270942
701.443	0.09276213
701.635	0.09277642
701.826	0.09283994
702.018	0.09284152
702.209	0.09288477
702.401	0.09286294
702.592	0.09295758
702.784	0.09295624
702.975	0.09298676
703.166	0.0930267
703.358	0.09307317
703.549	0.09314951
703.741	0.09318738
703.932	0.09314334
704.123	0.09313815
704.315	0.09317946
704.506	0.09321242
704.697	0.09324439
704.888	0.0932454
705.08	0.09327147
705.271	0.09330441
705.462	0.09331034
705.653	0.09330059
705.844	0.0932527
706.035	0.09325306
706.227	0.0932025
706.418	0.09324016
706.609	0.09326662
706.8	0.09331077
706.991	0.09328453
707.182	0.09336322
707.373	0.09335664
707.564	0.09342602
707.755	0.09336075
707.946	0.09339108
708.137	0.09342501
708.328	0.09351003
708.519	0.09352682
708.71	0.09356489
708.901	0.09360593
709.092	0.09373902
709.283	0.09371151
709.473	0.09375481
709.664	0.09381193
709.855	0.09381503
710.046	0.09388239
710.237	0.09390383
710.427	0.09393242
710.618	0.09401376
710.809	0.09402613
711	0.09399725
711.19	0.09401852
711.381	0.09408064
711.572	0.09405447
711.762	0.09408962
711.953	0.09410946
712.144	0.09415259
712.334	0.09420726
712.525	0.09429809
712.715	0.09429699
712.906	0.09433591
713.097	0.09432647
713.287	0.09438934
713.478	0.09444527
713.668	0.09452952
713.859	0.09451778
714.049	0.09454353
714.239	0.09460181
714.43	0.09463749
714.62	0.0946208
714.811	0.09461601
715.001	0.0946075
715.191	0.09466869
715.382	0.09467451
715.572	0.09476066
715.762	0.09478828
715.953	0.09484469
716.143	0.09490413
716.333	0.0949203
716.523	0.09493459
716.714	0.09504014
716.904	0.09503366
717.094	0.09512642
717.284	0.09513287
717.474	0.09515225
717.664	0.09521199
717.855	0.09529919
718.045	0.09529298
718.235	0.0953387
718.425	0.09536296
718.615	0.09547444
718.805	0.09555072
718.995	0.09563747
719.185	0.09571171
719.375	0.0958305
719.565	0.09593781
719.755	0.09601967
719.945	0.09604492
720.135	0.09615352
720.325	0.09617698
720.515	0.09616938
720.704	0.09617006
720.894	0.096162
721.084	0.09615845
721.274	0.09621423
721.464	0.09622847
721.654	0.09626506
721.843	0.09634624
722.033	0.09641275
722.223	0.09646858
722.413	0.09653388
722.602	0.09657822
722.792	0.09659149
722.982	0.09664942
723.171	0.09668092
723.361	0.09666807
723.55	0.09674835
723.74	0.09678806
723.93	0.09681989
724.119	0.09683491
724.309	0.09685052
724.498	0.09687228
724.688	0.09701204
724.877	0.09704157
725.067	0.0971215
725.256	0.09715027
725.446	0.09723568
725.635	0.09730272
725.825	0.09731999
726.014	0.09729584
726.203	0.09732179
726.393	0.09734308
726.582	0.09734882
726.771	0.09739072
726.961	0.09744096
727.15	0.09749146
727.339	0.09753167
727.529	0.09758779
727.718	0.09755816
727.907	0.09758177
728.096	0.09761706
728.286	0.09761542
728.475	0.097607
728.664	0.0976489
728.853	0.09765452
729.042	0.09772267
729.231	0.09775147
729.42	0.09770479
729.609	0.09772116
729.799	0.0977816
729.988	0.0977943
730.177	0.09780032
730.366	0.09778933
730.555	0.09781842
730.744	0.09785899
730.933	0.09785695
731.122	0.09787828
731.31	0.09791803
731.499	0.09794875
731.688	0.09801012
731.877	0.09802619
732.066	0.09812046
732.255	0.09814849
732.444	0.09819327
732.632	0.09821472
732.821	0.09820036
733.01	0.0982342
733.199	0.09826677
733.388	0.09821526
733.576	0.0982687
733.765	0.09827618
733.954	0.09828444
734.142	0.09831285
734.331	0.09833562
734.52	0.09836776
734.708	0.09837174
734.897	0.09836255
735.086	0.09835873
735.274	0.09839565
735.463	0.09844018
735.651	0.09842263
735.84	0.09851201
736.028	0.09858053
736.217	0.09865223
736.405	0.0986784
736.594	0.09869317
736.782	0.09869529
736.971	0.09871412
737.159	0.09870747
737.347	0.09874097
737.536	0.09870324
737.724	0.09873216
737.912	0.09872981
738.101	0.09876655
738.289	0.09878646
738.477	0.0987884
738.666	0.09876164
738.854	0.09877888
739.042	0.09878931
739.23	0.09878257
739.418	0.09881768
739.607	0.09884703
739.795	0.09885438
739.983	0.09891929
740.171	0.09895575
740.359	0.09903003
740.547	0.0990765
740.735	0.09910299
740.923	0.09914647
741.112	0.09917122
741.3	0.09912214
741.488	0.09913834
741.676	0.09919566
741.864	0.09925415
742.052	0.09926696
742.239	0.09923942
742.427	0.09926623
742.615	0.09930642
742.803	0.09933771
742.991	0.09924904
743.179	0.0992982
743.367	0.09928346
743.555	0.0993625
743.742	0.09935726
743.93	0.09938553
744.118	0.09937515
744.306	0.09939316
744.494	0.09932994
744.681	0.09934672
744.869	0.09936388
745.057	0.09938493
745.244	0.09937322
745.432	0.09941992
745.62	0.0994583
745.807	0.09955039
745.995	0.09962524
746.182	0.09956535
746.37	0.09954172
746.558	0.09962218
746.745	0.09959767
746.933	0.09959281
747.12	0.09952412
747.308	0.09951777
747.495	0.09956184
747.683	0.09962878
747.87	0.09961997
748.057	0.09967752
748.245	0.09971607
748.432	0.09974312
748.62	0.09973643
748.807	0.09977062
748.994	0.09976115
749.182	0.09982174
749.369	0.09983506
749.556	0.09984331
749.743	0.09983468
749.931	0.09985397
750.118	0.09986013
750.305	0.09987577
750.492	0.09980885
750.68	0.09984871
750.867	0.0998715
751.054	0.09992524
751.241	0.09993362
751.428	0.09993309
751.615	0.09994581
751.802	0.10003418
751.989	0.10001645
752.176	0.10002259
752.363	0.10002409
752.55	0.09997478
752.737	0.09997982
752.924	0.09996725
753.111	0.09990791
753.298	0.09991483
753.485	0.09985751
753.672	0.09981763
753.859	0.09984919
754.046	0.0998314
754.233	0.09984237
754.42	0.09984985
754.606	0.09984782
754.793	0.0998643
754.98	0.09988865
755.167	0.09989435
755.353	0.09991295
755.54	0.09993616
755.727	0.09992408
755.914	0.09987462
756.1	0.09989688
756.287	0.09991243
756.474	0.09990432
756.66	0.09987835
756.847	0.09983537
757.033	0.09981293
757.22	0.0998279
757.407	0.09985276
757.593	0.09986194
757.78	0.0998756
757.966	0.09989484
758.153	0.09991787
758.339	0.09994281
758.526	0.0999794
758.712	0.09995171
758.898	0.09989413
759.085	0.09981512
759.271	0.09982532
759.458	0.09985348
759.644	0.09984614
759.83	0.09979176
760.017	0.09980501
760.203	0.09980264
760.389	0.09985894
760.576	0.09983567
760.762	0.09980703
760.948	0.09977646
761.134	0.09980774
761.32	0.09980497
761.507	0.09979066
761.693	0.09983089
761.879	0.09985229
762.065	0.09984843
762.251	0.09984291
762.437	0.09984533
762.623	0.09980318
762.809	0.0997992
762.995	0.099724
763.181	0.09968184
763.367	0.09966033
763.553	0.0997117
763.739	0.09970596
763.925	0.09975928
764.111	0.09978971
764.297	0.09982312
764.483	0.09977655
764.669	0.09973972
764.855	0.09964631
765.041	0.09957832
765.227	0.09951678
765.412	0.09950486
765.598	0.09942357
765.784	0.09943145
765.97	0.09944405
766.156	0.09950687
766.341	0.09955742
766.527	0.09955866
766.713	0.09947686
766.898	0.09945726
767.084	0.0994265
767.27	0.09936617
767.455	0.09932111
767.641	0.09925514
767.827	0.09920288
768.012	0.09922323
768.198	0.09928566
768.383	0.09930911
768.569	0.0993354
768.754	0.09925765
768.94	0.09919396
769.125	0.0991916
769.311	0.09910468
769.496	0.09901503
769.682	0.09894273
769.867	0.09889916
770.052	0.09894469
770.238	0.09895935
770.423	0.09889578
770.608	0.0988969
770.794	0.09884276
770.979	0.09881151
771.164	0.09875139
771.35	0.09866233
771.535	0.09858347
771.72	0.09855594
771.905	0.09855602
772.09	0.09853474
772.276	0.09852978
772.461	0.0985225
772.646	0.09848193
772.831	0.09847369
773.016	0.09847267
773.201	0.09837965
773.386	0.09831397
773.571	0.09826917
773.756	0.09818335
773.941	0.09813584
774.126	0.09808559
774.311	0.09801309
774.496	0.09801328
774.681	0.09800434
774.866	0.09790612
775.051	0.09792483
775.236	0.09784626
775.421	0.09776662
775.606	0.09772311
775.791	0.09763884
775.976	0.09759933
776.16	0.09761364
776.345	0.09753905
776.53	0.09752596
776.715	0.09749788
776.899	0.09744037
777.084	0.09743506
777.269	0.09740862
777.454	0.09732548
777.638	0.09725642
777.823	0.09727415
778.008	0.09718661
778.192	0.0971615
778.377	0.09708612
778.561	0.09700235
778.746	0.09695147
778.931	0.0968989
779.115	0.0968721
779.3	0.09684357
779.484	0.09673836
779.669	0.09671508
779.853	0.09662809
780.037	0.09655597
780.222	0.09654432
780.406	0.09637003
780.591	0.09635766
780.775	0.09629466
780.959	0.09622589
781.144	0.09620142
781.328	0.09621474
781.512	0.09610449
781.697	0.09610573
781.881	0.09602291
782.065	0.09597156
782.249	0.09590992
782.434	0.09592107
782.618	0.09585185
782.802	0.09579737
782.986	0.0957226
783.17	0.09571361
783.354	0.09565662
783.539	0.09560616
783.723	0.09547883
783.907	0.09535615
784.091	0.09532206
784.275	0.09529531
784.459	0.09518705
784.643	0.09518341
784.827	0.09512805
785.011	0.09506797
785.195	0.09499562
785.379	0.09493325
785.563	0.09478526
785.747	0.0947044
785.93	0.09459954
786.114	0.09443862
786.298	0.09432904
786.482	0.09429075
786.666	0.09417993
786.85	0.09418108
787.033	0.09414211
787.217	0.0940581
787.401	0.09407764
787.585	0.09400049
787.768	0.0938862
787.952	0.09380393
788.136	0.09364448
788.319	0.09349758
788.503	0.09334162
788.687	0.0931563
788.87	0.09311072
789.054	0.09304833
789.237	0.09299411
789.421	0.09293783
789.605	0.09291596
789.788	0.09291891
789.972	0.09293547
790.155	0.09281283
790.338	0.09269904
790.522	0.09262346
790.705	0.0925479
790.889	0.09241034
791.072	0.09227551
791.256	0.09217629
791.439	0.09212923
791.622	0.09212973
791.806	0.09204781
791.989	0.09198211
792.172	0.09194621
792.355	0.09188899
792.539	0.0917716
792.722	0.09162222
792.905	0.09145406
793.088	0.09134845
793.271	0.09127762
793.455	0.09113099
793.638	0.09106763
793.821	0.0909937
794.004	0.09095265
794.187	0.09095824
794.37	0.09091056
794.553	0.09081473
794.736	0.09077579
794.919	0.09065295
795.102	0.09058813
795.285	0.0905271
795.468	0.09037451
795.651	0.09026307
795.834	0.09014091
796.017	0.09007014
796.2	0.08999518
796.383	0.08990718
796.566	0.08981918
796.749	0.08973377
796.931	0.08964543
797.114	0.08956702
797.297	0.08941504
797.48	0.08932074
797.663	0.08918183
797.845	0.08912666
798.028	0.08908719
798.211	0.08899099
798.393	0.08885601
798.576	0.08879684
798.759	0.08870342
798.941	0.08857918
799.124	0.08845568
799.307	0.08833741
799.489	0.08822793
799.672	0.0882266
799.854	0.08810848
800.037	0.08799064
800.219	0.08799867
800.402	0.08795858
800.584	0.08787017
800.767	0.08777964
800.949	0.08765825
801.132	0.08758367
801.314	0.0874383
801.496	0.0873338
801.679	0.08713034
801.861	0.08700509
802.043	0.08684602
802.226	0.08674483
802.408	0.08664701
802.59	0.08666105
802.772	0.08650845
802.955	0.0864514
803.137	0.08634376
803.319	0.08629151
803.501	0.08611275
803.684	0.08599179
803.866	0.08583272
804.048	0.08571697
804.23	0.08558117
804.412	0.0854757
804.594	0.08533598
804.776	0.08526681
804.958	0.08513698
805.14	0.08504516
805.322	0.08500207
805.504	0.0849607
805.686	0.0848574
805.868	0.08475537
806.05	0.08471171
806.232	0.08464103
806.414	0.08450631
806.596	0.08432798
806.778	0.08414743
806.96	0.08408078
807.141	0.08402716
807.323	0.08392037
807.505	0.08375477
807.687	0.083681
807.869	0.08367778
808.05	0.08359794
808.232	0.08342653
808.414	0.08331206
808.595	0.08318683
808.777	0.08311263
808.959	0.08300609
809.14	0.08282327
809.322	0.08272697
809.504	0.0826427
809.685	0.08250392
809.867	0.0823892
810.048	0.08229749
810.23	0.08218639
810.411	0.08207089
810.593	0.08189449
810.774	0.08174344
810.956	0.08165631
811.137	0.08149332
811.319	0.08141168
811.5	0.0812393
811.681	0.0811649
811.863	0.08111641
812.044	0.08110158
812.225	0.08099304
812.407	0.08092433
812.588	0.08081429
812.769	0.08073075
812.951	0.08053571
813.132	0.08038224
813.313	0.08016533
813.494	0.0800133
813.675	0.07984109
813.857	0.07967769
814.038	0.07958834
814.219	0.07953603
814.4	0.0794256
814.581	0.0793744
814.762	0.07927308
814.943	0.07921178
815.124	0.07907036
815.305	0.07891493
815.486	0.07879077
815.667	0.07868365
815.848	0.07852672
816.029	0.07837507
816.21	0.07824642
816.391	0.07815281
816.572	0.07806188
816.753	0.07793153
816.934	0.07779952
817.115	0.07775259
817.295	0.07768022
817.476	0.07754448
817.657	0.07744155
817.838	0.07730899
818.019	0.07714399
818.199	0.07701859
818.38	0.07683224
818.561	0.07668889
818.741	0.07665889
818.922	0.07652156
819.103	0.07641834
819.283	0.07635069
819.464	0.07631027
819.645	0.07624352
819.825	0.0760984
820.006	0.0758694
820.186	0.07577345
820.367	0.07560626
820.547	0.07537576
820.728	0.07516233
820.908	0.07492656
821.089	0.07482481
821.269	0.07473114
821.45	0.07454837
821.63	0.07450399
821.81	0.07447772
821.991	0.07432586
822.171	0.07420774
822.351	0.07407024
822.532	0.07384196
822.712	0.07369592
822.892	0.07346162
823.072	0.07326554
823.253	0.0731283
823.433	0.07311151
823.613	0.07298729
823.793	0.07294361
823.973	0.0728633
824.154	0.07275974
824.334	0.07274458
824.514	0.07268429
824.694	0.07242964
824.874	0.07222504
825.054	0.07207067
825.234	0.07192767
825.414	0.07180443
825.594	0.07156452
825.774	0.07141391
825.954	0.07140967
826.134	0.07138358
826.314	0.07128516
826.494	0.07117583
826.674	0.07112207
826.854	0.07104173
827.033	0.07085233
827.213	0.07063137
827.393	0.07043436
827.573	0.07026968
827.753	0.07006686
827.932	0.06985715
828.112	0.06967689
828.292	0.06964337
828.472	0.06948823
828.651	0.06940659
828.831	0.06926178
829.011	0.06920597
829.19	0.06908286
829.37	0.06891211
829.549	0.06869697
829.729	0.06856369
829.909	0.06837876
830.088	0.06823836
830.268	0.0680536
830.447	0.06784459
830.627	0.06777958
830.806	0.0677354
830.986	0.06764638
831.165	0.06754657
831.344	0.06745191
831.524	0.06730823
831.703	0.06723873
831.883	0.06700815
832.062	0.06673079
832.241	0.06649509
832.421	0.06633073
832.6	0.06614478
832.779	0.06597094
832.958	0.06578024
833.138	0.06569724
833.317	0.06564823
833.496	0.0656051
833.675	0.06545065
833.854	0.06534796
834.034	0.06529177
834.213	0.06525096
834.392	0.06513941
834.571	0.06496249
834.75	0.06483698
834.929	0.06465496
835.108	0.0645366
835.287	0.06440881
835.466	0.06421378
835.645	0.06406262
835.824	0.06391124
836.003	0.06374397
836.182	0.0636683
836.361	0.06343644
836.54	0.06324908
836.719	0.06312535
836.897	0.06293138
837.076	0.06279163
837.255	0.06264368
837.434	0.06249089
837.613	0.06238225
837.791	0.06226115
837.97	0.0621376
838.149	0.06203535
838.328	0.0620084
838.506	0.06195213
838.685	0.06184074
838.864	0.06175641
839.042	0.06165916
839.221	0.0615408
839.4	0.06148168
839.578	0.06126416
839.757	0.06100444
839.935	0.06081497
840.114	0.06068363
840.292	0.06056707
840.471	0.06048008
840.649	0.06036324
840.828	0.06027553
841.006	0.06026188
841.185	0.06021278
841.363	0.06006849
841.541	0.05991865
841.72	0.05976217
841.898	0.05954962
842.076	0.05938265
842.255	0.0591873
842.433	0.05899552
842.611	0.05890507
842.789	0.05877083
842.968	0.05863093
843.146	0.05857939
843.324	0.05843801
843.502	0.05832763
843.68	0.05828953
843.859	0.05812042
844.037	0.05798833
844.215	0.05782002
844.393	0.05762298
844.571	0.05749074
844.749	0.05733336
844.927	0.05715918
845.105	0.05705135
845.283	0.05695509
845.461	0.05683066
845.639	0.0567188
845.817	0.05660736
845.995	0.05653008
846.173	0.05641578
846.351	0.05637124
846.529	0.05621462
846.706	0.05603455
846.884	0.05591233
847.062	0.05570813
847.24	0.05553663
847.418	0.05530337
847.595	0.05499622
847.773	0.05479966
847.951	0.05467761
848.129	0.05451029
848.306	0.05450984
848.484	0.05440256
848.662	0.05434493
848.839	0.05436421
849.017	0.05422014
849.194	0.05414106
849.372	0.05398413
849.549	0.0537203
849.727	0.05358065
849.905	0.05339359
850.082	0.05314488
850.26	0.05308552
850.437	0.05293713
850.614	0.0528699
850.792	0.05282709
850.969	0.05259711
851.147	0.0524966
851.324	0.05244933
851.501	0.05231006
851.679	0.05207366
851.856	0.05185128
852.033	0.05165284
852.211	0.05152335
852.388	0.05130363
852.565	0.05105999
852.742	0.0508707
852.92	0.05075199
853.097	0.05063844
853.274	0.05053599
853.451	0.05046889
853.628	0.05045097
853.805	0.05039013
853.982	0.05031464
854.159	0.0502103
854.336	0.05011091
854.514	0.05000301
854.691	0.04988666
854.868	0.04965633
855.045	0.04944071
855.221	0.04927973
855.398	0.04916234
855.575	0.04900903
855.752	0.0488169
855.929	0.0486372
856.106	0.04862721
856.283	0.04859406
856.46	0.04846262
856.637	0.04838563
856.813	0.04824837
856.99	0.04815756
857.167	0.04805554
857.344	0.0478749
857.52	0.04765871
857.697	0.04748807
857.874	0.04736617
858.05	0.04724652
858.227	0.04709183
858.404	0.04688695
858.58	0.04681541
858.757	0.04667799
858.933	0.04658566
859.11	0.04649763
859.287	0.04634701
859.463	0.04616746
859.64	0.04609781
859.816	0.0459274
859.993	0.04574111
860.169	0.04555282
860.345	0.04537864
860.522	0.04530931
860.698	0.04527357
860.875	0.04515552
861.051	0.04503851
861.227	0.04499589
861.404	0.04496706
861.58	0.04484072
861.756	0.04473415
861.932	0.04459793
862.109	0.04445314
862.285	0.04430094
862.461	0.04418542
862.637	0.04400577
862.813	0.04384184
862.99	0.04363183
863.166	0.04340046
863.342	0.043355
863.518	0.04319123
863.694	0.04315889
863.87	0.04312216
864.046	0.04298715
864.222	0.04293397
864.398	0.04294573
864.574	0.04275516
864.75	0.04267791
864.926	0.04242149
865.102	0.04229043
865.278	0.04216826
865.454	0.04198582
865.63	0.04185768
865.805	0.04176426
865.981	0.04168852
866.157	0.0416644
866.333	0.04154474
866.509	0.04146456
866.684	0.04149185
866.86	0.04140615
867.036	0.04133336
867.212	0.04118103
867.387	0.0410342
867.563	0.0408161
867.739	0.04071248
867.914	0.040558
868.09	0.04039843
868.265	0.04022676
868.441	0.04002137
868.617	0.03987456
868.792	0.03982621
868.968	0.03969099
869.143	0.03956623
869.319	0.03949725
869.494	0.03939518
869.67	0.03941216
869.845	0.03930722
870.02	0.03923168
870.196	0.03908923
870.371	0.03887986
870.546	0.03868579
870.722	0.03856286
870.897	0.03836908
871.072	0.03832011
871.248	0.03801699
871.423	0.03792158
871.598	0.03782008
871.773	0.03773623
871.949	0.0376328
872.124	0.03760009
872.299	0.0374518
872.474	0.03753905
872.649	0.03753737
872.824	0.0374362
872.999	0.03726656
873.174	0.03701986
873.349	0.03678233
873.524	0.036593
873.699	0.03637908
873.874	0.0360246
874.049	0.03596548
874.224	0.03584768
874.399	0.03584536
874.574	0.03583116
874.749	0.03581554
874.924	0.035709
875.099	0.03574848
875.274	0.03562587
875.449	0.03554642
875.623	0.03538739
875.798	0.03512363
875.973	0.03496878
876.148	0.03492454
876.322	0.03475317
876.497	0.03461263
876.672	0.03444856
876.846	0.03441181
877.021	0.03446973
877.196	0.03442784
877.37	0.03419137
877.545	0.03414441
877.72	0.03401896
877.894	0.03392743
878.069	0.0337548
878.243	0.03362345
878.418	0.03337804
878.592	0.03333193
878.767	0.03312629
878.941	0.03287235
879.116	0.03277426
879.29	0.03273571
879.464	0.03259102
879.639	0.03253976
879.813	0.03243765
879.987	0.03254452
880.162	0.03264828
880.336	0.03257101
880.51	0.03242782
880.685	0.03232489
880.859	0.0322707
881.033	0.03219585
881.207	0.03186201
881.381	0.03165582
881.556	0.0315364
881.73	0.03144909
881.904	0.03127865
882.078	0.03106427
882.252	0.03091985
882.426	0.03094789
882.6	0.03101331
882.774	0.03097833
882.948	0.03085955
883.122	0.03090747
883.296	0.03087745
883.47	0.03078051
883.644	0.03064992
883.818	0.03047993
883.992	0.03033794
884.166	0.03018295
884.34	0.03005817
884.514	0.02997755
884.687	0.02988333
884.861	0.02973447
885.035	0.02957941
885.209	0.02945819
885.382	0.02956583
885.556	0.02954153
885.73	0.02947094
885.904	0.02943656
886.077	0.02942817
886.251	0.02938742
886.425	0.02928244
886.598	0.02895502
886.772	0.02864176
886.945	0.02850469
887.119	0.02837304
887.292	0.02824871
887.466	0.02808976
887.64	0.02808478
887.813	0.02809065
887.986	0.02809854
888.16	0.02800972
888.333	0.02788694
888.507	0.02768108
888.68	0.02765592
888.854	0.02753399
889.027	0.02743672
889.2	0.02734143
889.374	0.02728203
889.547	0.02721508
889.72	0.02710154
889.893	0.02695245
890.067	0.02687649
890.24	0.02684422
890.413	0.0266711
890.586	0.02651568
890.759	0.02641582
890.933	0.02643934
891.106	0.02639032
891.279	0.02636753
891.452	0.02625869
891.625	0.02621609
891.798	0.02617912
891.971	0.02607172
892.144	0.02593086
892.317	0.02574531
892.49	0.02541936
892.663	0.0253019
892.836	0.02533255
893.009	0.02526221
893.182	0.02518566
893.355	0.02513881
893.527	0.02519597
893.7	0.02533001
893.873	0.02528089
894.046	0.0251082
894.219	0.02499169
894.391	0.02497104
894.564	0.02487441
894.737	0.02469996
894.91	0.02443876
895.082	0.02422423
895.255	0.02410281
895.428	0.02399391
895.6	0.02373128
895.773	0.02366582
895.945	0.02361708
896.118	0.02363237
896.291	0.0236108
896.463	0.02367294
896.636	0.02364902
896.808	0.02376894
896.981	0.02371159
897.153	0.02368467
897.326	0.02358226
897.498	0.02350301
897.67	0.02335111
897.843	0.0231703
898.015	0.02289488
898.187	0.02266356
898.36	0.02238905
898.532	0.02229422
898.704	0.02215453
898.877	0.02207585
899.049	0.02204731
899.221	0.02213909
899.393	0.02213348
899.566	0.02217776
899.738	0.02211416
899.91	0.02215797
900.082	0.0220186
900.254	0.02196344
900.426	0.02180434
900.598	0.02175425
900.77	0.02160059
900.942	0.0215257
901.114	0.02137902
901.286	0.02137808
901.458	0.02125534
901.63	0.0212025
901.802	0.02111417
901.974	0.02112357
902.146	0.02103212
902.318	0.02095245
902.49	0.02081002
902.662	0.02067353
902.834	0.02055762
903.005	0.02054918
903.177	0.02046196
903.349	0.02034366
903.521	0.02026195
903.693	0.02012164
903.864	0.02011026
904.036	0.02007393
904.208	0.02001023
904.379	0.01991789
904.551	0.01995472
904.723	0.01987531
904.894	0.01983111
905.066	0.01978688
905.237	0.01983171
905.409	0.01969583
905.58	0.01963256
905.752	0.01960371
905.923	0.01964865
906.095	0.01957614
906.266	0.01950956
906.438	0.01931226
906.609	0.01923698
906.78	0.01909663
906.952	0.01891147
907.123	0.01866074
907.295	0.01861301
907.466	0.01856029
907.637	0.01840819
907.808	0.0184276
907.98	0.01837431
908.151	0.01838316
908.322	0.01841845
908.493	0.01836203
908.665	0.01833522
908.836	0.01834054
909.007	0.01831168
909.178	0.01834679
909.349	0.01829948
909.52	0.01822526
909.691	0.0181805
909.862	0.01809238
910.033	0.01804778
910.204	0.01791043
910.375	0.017863
910.546	0.0178172
910.717	0.0177535
910.888	0.0176983
911.059	0.01761445
911.23	0.017639
911.401	0.01756773
911.572	0.01744561
911.742	0.01723256
911.913	0.01715417
912.084	0.01702055
912.255	0.01695751
912.426	0.01688751
912.596	0.01664501
912.767	0.01646064
912.938	0.01641861
913.108	0.01632521
913.279	0.0162979
913.45	0.01618137
913.62	0.01603921
913.791	0.01622649
913.962	0.01626869
914.132	0.01624766
914.303	0.01615527
914.473	0.01622206
914.644	0.01620297
914.814	0.01607543
914.985	0.0159104
915.155	0.01582774
915.326	0.01584765
915.496	0.01589144
915.666	0.0157218
915.837	0.0156275
916.007	0.01555637
916.177	0.01545772
916.348	0.01544015
916.518	0.0152324
916.688	0.01511682
916.858	0.01502683
917.029	0.01495354
917.199	0.0149479
917.369	0.01488822
917.539	0.01486662
917.709	0.01480438
917.88	0.01474328
918.05	0.01465843
918.22	0.01459209
918.39	0.01456579
918.56	0.01444288
918.73	0.01428429
918.9	0.01427054
919.07	0.01422685
919.24	0.01415661
919.41	0.0141527
919.58	0.01410878
919.75	0.01419284
919.92	0.01429287
920.09	0.01435444
920.26	0.01438513
920.429	0.01440114
920.599	0.01420933
920.769	0.01417769
920.939	0.01402013
921.109	0.01391258
921.278	0.01370178
921.448	0.01343972
921.618	0.01334405
921.787	0.01340227
921.957	0.01318618
922.127	0.01313354
922.296	0.01305114
922.466	0.01308425
922.636	0.01317171
922.805	0.013164
922.975	0.01319752
923.144	0.01323535
923.314	0.0133192
923.483	0.0132133
923.653	0.0131148
923.822	0.01307929
923.992	0.01301746
924.161	0.01288826
924.331	0.01268941
924.5	0.01271358
924.669	0.01258744
924.839	0.01245859
925.008	0.01238076
925.177	0.01238133
925.347	0.01222776
925.516	0.01236713
925.685	0.01217571
925.854	0.01219359
926.023	0.0122561
926.193	0.01227088
926.362	0.01220571
926.531	0.01224709
926.7	0.01219361
926.869	0.01216886
927.038	0.01211309
927.207	0.01198242
927.376	0.01177499
927.545	0.01162885
927.715	0.0116968
927.884	0.01170351
928.052	0.01178679
928.221	0.01179258
928.39	0.01169119
928.559	0.01180014
928.728	0.01207619
928.897	0.01199317
929.066	0.01203062
929.235	0.01190174
929.404	0.0119952
929.572	0.01202404
929.741	0.01189293
929.91	0.01164437
930.079	0.01169452
930.247	0.01166033
930.416	0.01151049
930.585	0.01135806
930.753	0.01145044
930.922	0.01160512
931.091	0.01148329
931.259	0.01123497
931.428	0.01112745
931.596	0.01109142
931.765	0.01104139
931.934	0.01089496
932.102	0.01064002
932.27	0.01071919
932.439	0.01072268
932.607	0.01063074
932.776	0.01058794
932.944	0.01042194
933.113	0.01045006
933.281	0.01029417
933.449	0.01025381
933.618	0.01023017
933.786	0.0102362
933.954	0.01028425
934.123	0.01043053
934.291	0.01034886
934.459	0.01041974
934.627	0.01042911
934.795	0.01045787
934.964	0.01059997
935.132	0.01069375
935.3	0.01065531
935.468	0.01064701
935.636	0.01084337
935.804	0.01081806
935.972	0.01075265
936.14	0.01052169
936.308	0.01049172
936.476	0.01065476
936.644	0.01066467
936.812	0.01047587
936.98	0.01039745
937.148	0.01063471
937.316	0.01064504
937.484	0.01058692
937.652	0.01039043
937.82	0.01038286
937.987	0.01077577
938.155	0.01086939
938.323	0.01056578
938.491	0.01089779
938.658	0.01089053
938.826	0.01111774
938.994	0.01170553
939.162	0.0114713
939.329	0.01121451
939.497	0.01086711
939.665	0.0104356
939.832	0.01057155
940	0.01058038
940.167	0.01073937
940.335	0.01104372
940.502	0.01191616
940.67	0.0127149
940.837	0.01277671
941.005	0.01287222
941.172	0.012866
941.34	0.01229311
941.507	0.01223868
941.674	0.01190801
941.842	0.01178691
942.009	0.01187486
942.177	0.01209092
942.344	0.01170534
942.511	0.0120846
942.678	0.01279594
942.846	0.01300987
943.013	0.0133307
943.18	0.01347429
943.347	0.01309855
943.514	0.01340273
943.682	0.01310872
943.849	0.01241301
944.016	0.01149137
944.183	0.0122352
944.35	0.01231467
944.517	0.01253798
944.684	0.01343689
944.851	0.01380888
945.018	0.01407943
945.185	0.0149408
945.352	0.01457878
945.519	0.0142921
945.686	0.0137383
945.853	0.01256812
946.02	0.01154434
946.187	0.01168543
946.353	0.01114381
946.52	0.01050736
946.687	0.01120523
946.854	0.01232085
947.021	0.0125707
947.187	0.0129551
947.354	0.01195866
947.521	0.01189719
947.687	0.01251703
947.854	0.01226796
948.021	0.01185998
948.187	0.01152187
948.354	0.01108181
948.52	0.0115625
948.687	0.01129448
948.854	0.01083515
949.02	0.0101187
949.187	0.01033567
949.353	0.01009286
949.52	0.01006857
949.686	0.00925274
949.852	0.0093339
950.019	0.00915609
950.185	0.00929287
950.352	0.00926116
950.518	0.0099708
950.684	0.01030489
950.851	0.01044514
951.017	0.01064123
951.183	0.01019201
951.349	0.01004648
951.516	0.00913235
951.682	0.00828267
951.848	0.00791252
952.014	0.00777511
952.18	0.00735058
952.346	0.00785169
952.512	0.00814552
952.679	0.00854924
952.845	0.00897857
953.011	0.00912517
953.177	0.00929561
953.343	0.00912343
953.509	0.00864455
953.675	0.00828863
953.841	0.00813335
954.007	0.00823097
954.172	0.00788646
954.338	0.00777747
954.504	0.00799848
954.67	0.00800995
954.836	0.00815543
955.002	0.00789085
955.167	0.00769577
955.333	0.00710923
955.499	0.00754749
955.665	0.00737911
955.83	0.00745908
955.996	0.0073795
956.162	0.00720849
956.327	0.00736051
956.493	0.00814679
956.659	0.00824359
956.824	0.00826227
956.99	0.0084536
957.155	0.00850222
957.321	0.00862845
957.486	0.00835086
957.652	0.00774185
957.817	0.00681884
957.983	0.00663702
958.148	0.00656956
958.314	0.00612147
958.479	0.00616527
958.644	0.00613369
958.81	0.00643643
958.975	0.00668641
959.14	0.0067598
959.306	0.0062616
959.471	0.00635729
959.636	0.00604258
959.801	0.00565772
959.967	0.00544484
960.132	0.00536234
960.297	0.00523347
960.462	0.00535615
960.627	0.00537069
960.792	0.00552764
960.957	0.00585687
961.123	0.00596404
961.288	0.00620599
961.453	0.00606726
961.618	0.00610681
961.783	0.00592127
961.948	0.00582042
962.113	0.00552132
962.277	0.0051718
962.442	0.00489368
962.607	0.00460618
962.772	0.00475518
962.937	0.00479987
963.102	0.00466762
963.267	0.004756
963.431	0.00482555
963.596	0.00514616
963.761	0.00559703
963.926	0.00538753
964.09	0.00566391
964.255	0.00566864
964.42	0.00588644
964.584	0.00596587
964.749	0.00527972
964.914	0.00522285
965.078	0.00561913
965.243	0.00512739
965.407	0.00506756
965.572	0.00469
965.736	0.00477794
965.901	0.00523914
966.065	0.00525081
966.23	0.00494075
966.394	0.00513988
966.559	0.0051199
966.723	0.00492595
966.887	0.00489305
967.052	0.00450205
967.216	0.00443594
967.38	0.00421553
967.545	0.00417267
967.709	0.00445013
967.873	0.0048043
968.037	0.00473142
968.202	0.00478487
968.366	0.00491421
968.53	0.00503268
968.694	0.00531609
968.858	0.00529459
969.022	0.0051075
969.187	0.00541434
969.351	0.00557359
969.515	0.00554307
969.679	0.00564431
969.843	0.00542052
970.007	0.00521371
970.171	0.00490865
970.335	0.00453044
970.499	0.0046627
970.662	0.00464356
970.826	0.00478237
970.99	0.00480949
971.154	0.00483483
971.318	0.00527355
971.482	0.0054377
971.645	0.00548607
971.809	0.00549411
971.973	0.00507564
972.137	0.00448095
972.3	0.00406819
972.464	0.00391492
972.628	0.00399376
972.791	0.0037225
972.955	0.00321329
973.119	0.00347301
973.282	0.00410941
973.446	0.00431419
973.609	0.00439683
973.773	0.00445256
973.936	0.00433539
974.1	0.00488045
974.263	0.00458166
974.427	0.0042011
974.59	0.0041955
974.754	0.00441993
974.917	0.00440587
975.08	0.00471853
975.244	0.00478932
975.407	0.00501328
975.57	0.00555834
975.734	0.00582434
975.897	0.00556921
976.06	0.00585401
976.223	0.00585065
976.387	0.00551029
976.55	0.00540393
976.713	0.00499674
976.876	0.00510107
977.039	0.00527125
977.202	0.00504156
977.365	0.0048223
977.528	0.00490439
977.692	0.00501539
977.855	0.00492651
978.018	0.00501322
978.181	0.00481821
978.344	0.00451529
978.506	0.0047393
978.669	0.00494421
978.832	0.00501679
978.995	0.00520694
979.158	0.00496004
979.321	0.00466034
979.484	0.00467335
979.646	0.00445506
979.809	0.00427907
979.972	0.004147
980.135	0.00410394
980.297	0.0040763
980.46	0.0043224
980.623	0.00434986
980.786	0.00446714
980.948	0.00458706
981.111	0.0050207
981.273	0.00456995
981.436	0.00462728
981.599	0.00520671
981.761	0.00497807
981.924	0.00490951
982.086	0.00476151
982.249	0.00395221
982.411	0.00425464
982.573	0.00402721
982.736	0.00329117
982.898	0.00320717
983.061	0.00326851
983.223	0.00270334
983.385	0.00315249
983.548	0.00349888
983.71	0.00374228
983.872	0.00350808
984.034	0.0036588
984.197	0.0041244
984.359	0.00509769
984.521	0.0048359
984.683	0.00449279
984.845	0.00428259
985.008	0.0053447
985.17	0.00567791
985.332	0.00480344
985.494	0.00418545
985.656	0.0040632
985.818	0.00410064
985.98	0.00383389
986.142	0.00302919
986.304	0.00279239
986.466	0.00310204
986.628	0.00292904
986.79	0.00335109
986.952	0.00347765
987.113	0.00395849
987.275	0.00428473
987.437	0.00433344
987.599	0.00447078
987.761	0.00471446
987.922	0.00446757
988.084	0.00442867
988.246	0.00440485
988.408	0.00408183
988.569	0.00452661
988.731	0.00401041
988.893	0.00394631
989.054	0.00402489
989.216	0.00383935
989.377	0.00382955
989.539	0.0033975
989.701	0.00272298
989.862	0.00273404
990.024	0.00272238
990.185	0.00238645
990.347	0.00308348
990.508	0.0028475
990.669	0.00349299
990.831	0.00345652
990.992	0.00379457
991.154	0.00355603
991.315	0.00399522
991.476	0.00300455
991.638	0.00306134
991.799	0.00329995
991.96	0.00408941
992.121	0.00405248
992.283	0.00454854
992.444	0.00436831
992.605	0.0049159
992.766	0.00489836
992.927	0.00441962
993.088	0.00325396
993.249	0.00327337
993.41	0.00309512
993.572	0.00306599
993.733	0.00288704
993.894	0.00237059
994.055	0.00320945
994.216	0.0046348
994.376	0.00425624
994.537	0.00388617
994.698	0.00332791
994.859	0.00371667
995.02	0.00407155
995.181	0.00322368
995.342	0.00237575
995.503	0.00323623
995.663	0.00412149
995.824	0.00485165
995.985	0.00472062
996.146	0.00465086
996.306	0.00528182
996.467	0.00551162
996.628	0.00443444
996.788	0.00437604
996.949	0.00481344
997.11	0.00483118
997.27	0.00540927
997.431	0.00538797
997.591	0.00557293
997.752	0.00570358
997.912	0.00549885
998.073	0.00505499
998.233	0.00495621
998.394	0.00526845
998.554	0.00531884
998.714	0.0049954
998.875	0.00572233
999.035	0.00549888
999.196	0.00544676
999.356	0.0052863
999.516	0.00435439
999.676	0.00373617
999.837	0.00365666
999.997	0.00333748
1000.157	0.0035715
1000.317	0.00381923
1000.477	0.00437986
1000.638	0.00489894
1000.798	0.00479375
1000.958	0.00518626
1001.118	0.00490385
1001.278	0.00411448
1001.438	0.00402824
1001.598	0.00364558
1001.758	0.00400845
1001.918	0.00428417
1002.078	0.00430619
1002.238	0.00503181
1002.398	0.00611872
1002.558	0.00576571
1002.718	0.00529436
1002.878	0.00582372
1003.037	0.00559492
1003.197	0.0051022
1003.357	0.00468108
1003.517	0.00441492
1003.677	0.00322634
1003.836	0.00348003
1003.996	0.00240539
1004.156	0.0024532
1004.315	0.00309437
1004.475	0.00350318
1004.635	0.00281434
1004.794	0.0043432
1004.954	0.0052533
1005.114	0.00535363
1005.273	0.00527438
1005.433	0.00421916
1005.592	0.00530882
1005.752	0.006052
1005.911	0.00649359
1006.071	0.00618234
1006.23	0.00565028
1006.389	0.00603408
1006.549	0.00691779
1006.708	0.00582098
1006.868	0.00583308
1007.027	0.00531533
1007.186	0.00514968
1007.345	0.00576807
1007.505	0.00590872
1007.664	0.00493557
1007.823	0.00412536
1007.982	0.00540023
1008.142	0.00615118
1008.301	0.00478716
1008.46	0.00516616
1008.619	0.00390381
1008.778	0.00478638
1008.937	0.00511691
1009.096	0.00281777
1009.255	0.00303485
1009.414	0.00457952
1009.573	0.00312636
1009.732	0.00371201
1009.891	0.00372458
1010.05	0.00468106
1010.209	0.00660189
1010.368	0.00569158
1010.527	0.00531827
1010.686	0.00716883
1010.845	0.00817977
1011.003	0.00740143
1011.162	0.00773986
1011.321	0.00747051
1011.48	0.00830054
1011.638	0.00875068
1011.797	0.00966681
1011.956	0.0103651
1012.115	0.0108904
1012.273	0.00975044
1012.432	0.00897636
1012.59	0.00809147
1012.749	0.00901195
1012.908	0.00645176
1013.066	0.00593128
1013.225	0.00550744
1013.383	0.00571226
1013.542	0.0059454
1013.7	0.00640998
1013.859	0.00477546
1014.017	0.00461983
1014.175	0.00344698
1014.334	0.00344811
1014.492	0.00415067
1014.65	0.00376055
1014.809	0.00332666
1014.967	0.00475348
1015.125	0.00522292
1015.284	0.00577545
1015.442	0.00717686
1015.6	0.0078477
1015.758	0.00732311
1015.916	0.00726262
1016.075	0.00857839
1016.233	0.00841917
1016.391	0.00800743
1016.549	0.00782845
1016.707	0.00789234
1016.865	0.01043713
1017.023	0.01157854
1017.181	0.01095298
1017.339	0.01246183
1017.497	0.01378565
1017.655	0.0130083
1017.813	0.01150605
1017.971	0.00906337
1018.129	0.00830364
1018.286	0.00647918
1018.444	0.00709845
1018.602	0.00749827
1018.76	0.007435
1018.918	0.0089208
1019.075	0.00917225
1019.233	0.00855405
1019.391	0.00927335
1019.549	0.01020164
1019.706	0.0104361
1019.864	0.01284799
1020.022	0.01109106
1020.179	0.01440547
1020.337	0.0146198
1020.494	0.01395639
1020.652	0.0128923
1020.809	0.0143506
1020.967	0.01497438
1021.124	0.01458397
1021.282	0.013025
1021.439	0.01648734
1021.597	0.01745173
1021.754	0.01593171
1021.911	0.01356592
1022.069	0.00835444
1022.226	0.0090653
1022.384	0.00841427
1022.541	0.00698129
1022.698	0.00828785
1022.855	0.0101053
1023.013	0.00980279
1023.17	0.01304788
1023.327	0.01428381
1023.484	0.01529255
1023.641	0.01720185
1023.798	0.01818851
1023.956	0.01984284
1024.113	0.02157108
1024.27	0.02038241
1024.427	0.01720036
1024.584	0.01876491
1024.741	0.01190026
1024.898	0.0103741
1025.055	0.01182872
1025.212	0.01129886
1025.369	0.01337356
1025.525	0.01608206
1025.682	0.0148736
1025.839	0.01774117
1025.996	0.01812349
1026.153	0.01457557
1026.31	0.01611442
1026.466	0.01253223
1026.623	0.01014957
1026.78	0.0112875
1026.937	0.01238748
1027.093	0.01513454
1027.25	0.01953521
1027.407	0.01429724
1027.563	0.01904888
1027.72	0.0214247
1027.876	0.01891649
1028.033	0.02221735
1028.19	0.02351265
1028.346	0.0179372
1028.503	0.02038783
1028.659	0.01802757
1028.816	0.02103424
1028.972	0.01814949
1029.128	0.01410303
1029.285	0.00533656
1029.441	0.00543898
1029.598	0.00571681
1029.754	0.00590483
1029.91	0.00703159
1030.067	0.00987023
1030.223	0.01103673
1030.379	0.01091998
1030.535	0.01179267
1030.691	0.00989923
1030.848	0.01171677
1031.004	0.01084252
1031.16	0.01198095
1031.316	0.01080372
1031.472	0.01562771
1031.628	0.01520399
1031.784	0.01831408
1031.94	0.01497985
1032.096	0.00754978
1032.252	0.00842095
1032.408	0.01070444
1032.564	0.01058665
1032.72	0.01380517
1032.876	0.00922558
1033.032	0.01392048
1033.188	0.01661806
1033.344	0.01418398
1033.5	0.01118236
1033.655	0.00947269
1033.811	0.00561783
1033.967	0.01140164
