Data from 0_1_mm_pl_20pc_Absorbance__0__18-27-15-582.txt Node

Date: Wed Mar 01 18:27:15 CET 2023
User: Ange
Spectrometer: FLMT08341
Trigger mode: 0
Integration Time (sec): 1.000000E-2
Scans to average: 400
Electric dark correction enabled: true
Nonlinearity correction enabled: false
Boxcar width: 3
XAxis mode: Wavelengths
Number of Pixels in Spectrum: 3648
>>>>>Begin Spectral Data<<<<<
345.271	0.03272713
345.487	0.02589955
345.704	0.01882528
345.921	0.02408569
346.137	0.03554588
346.354	0.03975068
346.571	0.04089808
346.787	0.15141667
347.004	-0.06286378
347.22	-0.12676359
347.437	-0.00624509
347.653	0.06103488
347.87	-0.27251039
348.086	-0.36627109
348.303	0.62670112
348.519	0.04926588
348.736	0.04620599
348.952	0.05302328
349.169	0.05228904
349.385	0.05155958
349.601	0.04823012
349.818	0.04766926
350.034	0.04634007
350.251	0.04483
350.467	0.0441472
350.683	0.04344345
350.9	0.04579881
351.116	0.04616447
351.332	0.04434913
351.549	0.04604206
351.765	0.04766288
351.981	0.04855681
352.197	0.04864687
352.414	0.04921682
352.63	0.05084573
352.846	0.05285807
353.062	0.0517068
353.278	0.05084073
353.495	0.05011378
353.711	0.05020109
353.927	0.05033244
354.143	0.05169857
354.359	0.0517623
354.575	0.05294213
354.792	0.0551962
355.008	0.05620289
355.224	0.0563115
355.44	0.055946
355.656	0.05630015
355.872	0.05746699
356.088	0.05906678
356.304	0.06071707
356.52	0.061509
356.736	0.06129914
356.952	0.06288636
357.168	0.06119893
357.384	0.06160479
357.6	0.0603884
357.816	0.06140629
358.032	0.06277039
358.248	0.06500069
358.464	0.06524108
358.679	0.06680839
358.895	0.06650683
359.111	0.06741471
359.327	0.06481023
359.543	0.06388312
359.759	0.06500421
359.974	0.06414319
360.19	0.06420484
360.406	0.06575326
360.622	0.06643126
360.838	0.06608072
361.053	0.06653118
361.269	0.06566949
361.485	0.06671814
361.701	0.06781387
361.916	0.06737612
362.132	0.06728458
362.348	0.06865101
362.563	0.06922939
362.779	0.06902601
362.995	0.06937034
363.21	0.06906782
363.426	0.06837249
363.641	0.06875842
363.857	0.0692623
364.073	0.06940844
364.288	0.07014213
364.504	0.07124929
364.719	0.07190335
364.935	0.07305998
365.15	0.07316155
365.366	0.07335378
365.581	0.07389652
365.797	0.07359547
366.012	0.07321429
366.228	0.07309
366.443	0.07300396
366.658	0.07344731
366.874	0.07344989
367.089	0.07507474
367.305	0.07609396
367.52	0.07564702
367.735	0.07705112
367.951	0.07667445
368.166	0.07748228
368.381	0.07845557
368.597	0.07750742
368.812	0.07825453
369.027	0.07915447
369.243	0.07823484
369.458	0.08034022
369.673	0.08065476
369.888	0.07956009
370.104	0.07962282
370.319	0.08039077
370.534	0.08129268
370.749	0.08103063
370.964	0.08071674
371.179	0.0806464
371.395	0.08157947
371.61	0.08205722
371.825	0.08218571
372.04	0.08215168
372.255	0.08301723
372.47	0.08269685
372.685	0.08278257
372.9	0.08250635
373.115	0.08241916
373.33	0.08226225
373.545	0.08194982
373.76	0.08168236
373.975	0.08203969
374.19	0.08250533
374.405	0.08359269
374.62	0.08490794
374.835	0.08600508
375.05	0.08747784
375.265	0.08756118
375.48	0.08802873
375.695	0.08873264
375.91	0.08912388
376.125	0.08883959
376.339	0.08796389
376.554	0.08711941
376.769	0.08922787
376.984	0.08955194
377.199	0.08871277
377.414	0.08844004
377.628	0.08850496
377.843	0.08919782
378.058	0.09016952
378.273	0.08974915
378.487	0.08991158
378.702	0.09093384
378.917	0.09130487
379.131	0.09143914
379.346	0.09090165
379.561	0.09016111
379.775	0.09000917
379.99	0.09003245
380.205	0.08965218
380.419	0.08974128
380.634	0.08975953
380.848	0.09072097
381.063	0.09149618
381.278	0.09270195
381.492	0.09252409
381.707	0.09364934
381.921	0.09410638
382.136	0.09465346
382.35	0.09456534
382.565	0.09494315
382.779	0.09503658
382.994	0.09574554
383.208	0.09608552
383.422	0.09657961
383.637	0.09654521
383.851	0.09765594
384.066	0.09824254
384.28	0.09840438
384.494	0.0991755
384.709	0.09918839
384.923	0.09944621
385.137	0.09970009
385.352	0.09908762
385.566	0.09946397
385.78	0.09923427
385.995	0.09895291
386.209	0.09913001
386.423	0.09951398
386.637	0.10001686
386.852	0.10026816
387.066	0.09954068
387.28	0.09972536
387.494	0.09976056
387.708	0.09989627
387.923	0.10007299
388.137	0.10095599
388.351	0.10166831
388.565	0.10250199
388.779	0.10271989
388.993	0.1037886
389.207	0.10475564
389.421	0.10565861
389.635	0.10491764
389.85	0.10450601
390.064	0.10494199
390.278	0.10592714
390.492	0.10587997
390.706	0.10560865
390.92	0.1054016
391.134	0.10624831
391.348	0.10759415
391.561	0.10736136
391.775	0.10707222
391.989	0.1073878
392.203	0.10806649
392.417	0.1085426
392.631	0.10895454
392.845	0.10861217
393.059	0.10933123
393.273	0.10943368
393.486	0.10928815
393.7	0.10860879
393.914	0.1089329
394.128	0.1089755
394.342	0.10885819
394.555	0.10822881
394.769	0.10856543
394.983	0.10949496
395.197	0.11015165
395.41	0.11004918
395.624	0.11044236
395.838	0.11076398
396.051	0.11196096
396.265	0.11203017
396.479	0.1116731
396.692	0.11154655
396.906	0.11122258
397.12	0.11114548
397.333	0.11093282
397.547	0.1107523
397.76	0.11089458
397.974	0.11099557
398.187	0.11112293
398.401	0.1116886
398.614	0.11181718
398.828	0.1122186
399.041	0.11234941
399.255	0.1129388
399.468	0.11316574
399.682	0.11339295
399.895	0.11348463
400.109	0.11339779
400.322	0.11373985
400.536	0.1135455
400.749	0.11325231
400.962	0.11296199
401.176	0.11318202
401.389	0.11319778
401.602	0.11304754
401.816	0.11308132
402.029	0.11330903
402.242	0.11324905
402.456	0.1137579
402.669	0.11365521
402.882	0.11336699
403.095	0.11355586
403.309	0.11370652
403.522	0.11381032
403.735	0.11412395
403.948	0.11389136
404.161	0.11446469
404.375	0.1150037
404.588	0.11533036
404.801	0.11529333
405.014	0.11546595
405.227	0.11593679
405.44	0.11634468
405.653	0.11640781
405.866	0.11582551
406.079	0.11579936
406.293	0.11584615
406.506	0.11558622
406.719	0.11493884
406.932	0.11501131
407.145	0.11459693
407.358	0.11516738
407.571	0.11471967
407.784	0.11472523
407.996	0.11537815
408.209	0.11547759
408.422	0.11497721
408.635	0.11524608
408.848	0.11537152
409.061	0.11568126
409.274	0.11553455
409.487	0.11462409
409.7	0.11492146
409.912	0.1151753
410.125	0.11495344
410.338	0.11456955
410.551	0.11428846
410.764	0.11410462
410.976	0.11410817
411.189	0.11368021
411.402	0.11336279
411.615	0.11299509
411.827	0.11295869
412.04	0.11304578
412.253	0.11290105
412.465	0.11317615
412.678	0.11334479
412.891	0.11363417
413.103	0.1134716
413.316	0.11305105
413.529	0.11315593
413.741	0.11311573
413.954	0.11300861
414.166	0.11250629
414.379	0.11206513
414.591	0.11231592
414.804	0.11221753
415.016	0.11171187
415.229	0.11156868
415.441	0.11132752
415.654	0.11142097
415.866	0.11138987
416.079	0.11122097
416.291	0.11136331
416.504	0.11127026
416.716	0.11096933
416.928	0.11066287
417.141	0.11047282
417.353	0.11012299
417.566	0.10957062
417.778	0.10933509
417.99	0.10916633
418.203	0.10915964
418.415	0.10886633
418.627	0.10866597
418.839	0.10858999
419.052	0.10889238
419.264	0.10851426
419.476	0.10826636
419.688	0.10814199
419.901	0.10808403
420.113	0.10774065
420.325	0.10728491
420.537	0.10697635
420.749	0.10692247
420.961	0.10660295
421.174	0.10627094
421.386	0.10593781
421.598	0.1056151
421.81	0.10563355
422.022	0.10513951
422.234	0.10493845
422.446	0.10470322
422.658	0.10444851
422.87	0.10414855
423.082	0.10386691
423.294	0.10367239
423.506	0.10363481
423.718	0.10300406
423.93	0.10240473
424.142	0.10189683
424.354	0.1016635
424.566	0.10139109
424.778	0.1010079
424.99	0.10064209
425.202	0.10031273
425.414	0.10020409
425.625	0.10012355
425.837	0.09969332
426.049	0.09944513
426.261	0.09905946
426.473	0.09866462
426.684	0.0983105
426.896	0.09828314
427.108	0.097735
427.32	0.09748037
427.531	0.09706055
427.743	0.09678428
427.955	0.0964357
428.167	0.09610348
428.378	0.09582026
428.59	0.09548251
428.802	0.09499999
429.013	0.09479364
429.225	0.0940351
429.436	0.09358891
429.648	0.09314933
429.86	0.09259741
430.071	0.09221742
430.283	0.09183811
430.494	0.0911585
430.706	0.09106446
430.917	0.09066025
431.129	0.09044619
431.34	0.09009512
431.552	0.08970932
431.763	0.08930156
431.975	0.089245
432.186	0.08874956
432.398	0.08841098
432.609	0.0878192
432.821	0.08729036
433.032	0.08689838
433.243	0.08659624
433.455	0.0861594
433.666	0.08579708
433.877	0.08549223
434.089	0.08513331
434.3	0.08479831
434.511	0.08438211
434.723	0.08401303
434.934	0.08350946
435.145	0.08316526
435.356	0.08261205
435.568	0.08241933
435.779	0.08198524
435.99	0.08175304
436.201	0.08142518
436.412	0.08105966
436.624	0.08061211
436.835	0.08030129
437.046	0.07996119
437.257	0.07964203
437.468	0.07923535
437.679	0.07884893
437.89	0.07841971
438.101	0.07799775
438.312	0.07766426
438.523	0.07718107
438.734	0.07678334
438.945	0.07627502
439.156	0.07577723
439.367	0.07548915
439.578	0.07516756
439.789	0.07453361
440	0.07406083
440.211	0.07361198
440.422	0.07324339
440.633	0.07277624
440.844	0.07209589
441.055	0.07157861
441.266	0.07119065
441.477	0.07068529
441.687	0.07020157
441.898	0.06960815
442.109	0.06900757
442.32	0.06851242
442.531	0.06790541
442.741	0.06734755
442.952	0.06695668
443.163	0.06635417
443.374	0.06594098
443.584	0.06559858
443.795	0.0651909
444.006	0.06500416
444.216	0.06462993
444.427	0.06409005
444.638	0.0637546
444.848	0.06335726
445.059	0.06298066
445.27	0.06257075
445.48	0.06193104
445.691	0.06158956
445.901	0.06118641
446.112	0.06085953
446.323	0.0604074
446.533	0.05982641
446.744	0.05942482
446.954	0.05894691
447.165	0.05843791
447.375	0.05808938
447.586	0.05753091
447.796	0.05712938
448.006	0.05667807
448.217	0.05634693
448.427	0.0559544
448.638	0.05538072
448.848	0.05487076
449.058	0.05450462
449.269	0.05411251
449.479	0.05390138
449.689	0.0533659
449.9	0.05308325
450.11	0.05281105
450.32	0.05244326
450.531	0.05195509
450.741	0.05148132
450.951	0.05090363
451.161	0.05046484
451.372	0.0498957
451.582	0.0495903
451.792	0.04923764
452.002	0.04894746
452.212	0.04851797
452.422	0.04822628
452.633	0.04794522
452.843	0.04769924
453.053	0.04715978
453.263	0.04671551
453.473	0.04613503
453.683	0.04566314
453.893	0.04517543
454.103	0.04476377
454.313	0.04435946
454.523	0.04399664
454.733	0.04364658
454.943	0.04356615
455.153	0.04338821
455.363	0.04317263
455.573	0.04296855
455.783	0.04265
455.993	0.04234301
456.203	0.04200637
456.413	0.04152221
456.623	0.04106664
456.833	0.04064721
457.042	0.04011736
457.252	0.03972354
457.462	0.03941669
457.672	0.03909893
457.882	0.03889711
458.091	0.03862435
458.301	0.03841852
458.511	0.03815246
458.721	0.03795272
458.931	0.03759613
459.14	0.03731274
459.35	0.03690279
459.56	0.03656437
459.769	0.03617929
459.979	0.03589064
460.189	0.03553478
460.398	0.03530014
460.608	0.03503639
460.817	0.03472072
461.027	0.03448651
461.237	0.03410663
461.446	0.03388599
461.656	0.03369742
461.865	0.03326146
462.075	0.03294409
462.284	0.03264016
462.494	0.03232553
462.703	0.0321075
462.913	0.03171793
463.122	0.03150722
463.332	0.03131682
463.541	0.03115083
463.751	0.03113204
463.96	0.03095796
464.169	0.03084517
464.379	0.03072199
464.588	0.0303756
464.797	0.03016739
465.007	0.02987687
465.216	0.02952748
465.425	0.0293009
465.635	0.02883757
465.844	0.02856577
466.053	0.02834956
466.263	0.02824727
466.472	0.02792391
466.681	0.02768972
466.89	0.02740055
467.099	0.02739378
467.309	0.02721116
467.518	0.02696361
467.727	0.02665707
467.936	0.02651572
468.145	0.02623085
468.354	0.02610669
468.563	0.02584032
468.772	0.02552424
468.982	0.02532122
469.191	0.02513432
469.4	0.02487105
469.609	0.02475639
469.818	0.02451561
470.027	0.02429937
470.236	0.02423968
470.445	0.02399169
470.654	0.02379495
470.863	0.0236778
471.072	0.02347526
471.28	0.02330223
471.489	0.02313586
471.698	0.02294134
471.907	0.02281217
472.116	0.0226637
472.325	0.02254316
472.534	0.02242722
472.743	0.0223667
472.951	0.02229004
473.16	0.02212977
473.369	0.022041
473.578	0.02194076
473.786	0.02187135
473.995	0.02178694
474.204	0.02154692
474.413	0.0213719
474.621	0.0211794
474.83	0.02104524
475.039	0.02084349
475.247	0.0206814
475.456	0.02057419
475.665	0.02044845
475.873	0.02039357
476.082	0.02039122
476.291	0.02027358
476.499	0.02025639
476.708	0.02014885
476.916	0.02005112
477.125	0.01996321
477.333	0.01983596
477.542	0.01964698
477.75	0.01953143
477.959	0.01940349
478.167	0.01928351
478.376	0.0190931
478.584	0.01903851
478.793	0.01894016
479.001	0.01891817
479.209	0.01889793
479.418	0.01883872
479.626	0.01870213
479.834	0.01861049
480.043	0.01854799
480.251	0.01844296
480.459	0.01835584
480.668	0.01824018
480.876	0.01811363
481.084	0.01807862
481.293	0.01800647
481.501	0.01797436
481.709	0.01789328
481.917	0.01782284
482.125	0.01781565
482.334	0.01781078
482.542	0.01772975
482.75	0.01763955
482.958	0.01754209
483.166	0.01753459
483.374	0.01745723
483.583	0.01740124
483.791	0.01723745
483.999	0.017272
484.207	0.01728428
484.415	0.01719385
484.623	0.01711544
484.831	0.0170622
485.039	0.01692565
485.247	0.01696588
485.455	0.01687204
485.663	0.01677995
485.871	0.0167888
486.079	0.01674724
486.287	0.01675173
486.495	0.01676028
486.702	0.01670608
486.91	0.01667582
487.118	0.01668521
487.326	0.01668098
487.534	0.01664332
487.742	0.01660357
487.95	0.01664039
488.157	0.01670296
488.365	0.01667027
488.573	0.016663
488.781	0.01666454
488.988	0.0167837
489.196	0.01678686
489.404	0.01669667
489.612	0.01662845
489.819	0.01660659
490.027	0.01657183
490.235	0.01649486
490.442	0.01641871
490.65	0.01640766
490.857	0.01641104
491.065	0.01644971
491.273	0.01651298
491.48	0.0165792
491.688	0.01658302
491.895	0.01664182
492.103	0.01662483
492.31	0.01668721
492.518	0.01666386
492.725	0.01666542
492.933	0.01669269
493.14	0.01673064
493.348	0.01667882
493.555	0.01673262
493.763	0.01673419
493.97	0.01672352
494.177	0.01668485
494.385	0.01668276
494.592	0.01667897
494.8	0.01669667
495.007	0.01669604
495.214	0.01673098
495.422	0.01677752
495.629	0.01684151
495.836	0.0169011
496.043	0.01697171
496.251	0.01699233
496.458	0.01700539
496.665	0.0170248
496.872	0.01703286
497.08	0.01707068
497.287	0.01707278
497.494	0.01716151
497.701	0.01714031
497.908	0.01718563
498.115	0.01721168
498.322	0.01732247
498.53	0.01733956
498.737	0.01735269
498.944	0.01728111
499.151	0.01739217
499.358	0.01748541
499.565	0.01754482
499.772	0.01755752
499.979	0.01766846
500.186	0.01772648
500.393	0.01778496
500.6	0.01782738
500.807	0.01778278
501.014	0.01778836
501.221	0.01785691
501.427	0.01785484
501.634	0.01791591
501.841	0.01804767
502.048	0.01814945
502.255	0.01827387
502.462	0.01845867
502.669	0.01849474
502.875	0.01863529
503.082	0.01870118
503.289	0.01873372
503.496	0.0187632
503.702	0.01883083
503.909	0.01881111
504.116	0.01885663
504.323	0.01888554
504.529	0.01895173
504.736	0.01897472
504.943	0.01903412
505.149	0.01908871
505.356	0.01917019
505.563	0.0192466
505.769	0.0192653
505.976	0.01934506
506.182	0.01942254
506.389	0.0195487
506.595	0.01967172
506.802	0.01969625
507.008	0.01977923
507.215	0.01979676
507.421	0.01983543
507.628	0.01993905
507.834	0.0199786
508.041	0.02001555
508.247	0.02011664
508.454	0.02016078
508.66	0.02034117
508.866	0.02045338
509.073	0.02052166
509.279	0.02057664
509.486	0.02064881
509.692	0.02075678
509.898	0.02085499
510.105	0.02092315
510.311	0.02101831
510.517	0.02110116
510.723	0.02120316
510.93	0.02127116
511.136	0.02136021
511.342	0.02149329
511.548	0.02154155
511.754	0.02160807
511.961	0.02168146
512.167	0.02178764
512.373	0.02189392
512.579	0.02200264
512.785	0.02205477
512.991	0.02218575
513.197	0.02223254
513.404	0.02238862
513.61	0.02246856
513.816	0.0225722
514.022	0.02257077
514.228	0.02268146
514.434	0.02275677
514.64	0.02287617
514.846	0.02292263
515.052	0.02294477
515.258	0.02302738
515.464	0.02315951
515.669	0.02326988
515.875	0.02340921
516.081	0.02356175
516.287	0.02368767
516.493	0.02382169
516.699	0.02398601
516.905	0.02409924
517.111	0.02420488
517.316	0.02430092
517.522	0.02439147
517.728	0.02451014
517.934	0.02464377
518.139	0.02473671
518.345	0.02491393
518.551	0.02501334
518.757	0.02513338
518.962	0.02524524
519.168	0.02538079
519.374	0.02546803
519.579	0.02550175
519.785	0.02557874
519.991	0.02573295
520.196	0.02582615
520.402	0.02595772
520.607	0.02600428
520.813	0.02612743
521.018	0.02629141
521.224	0.02639966
521.429	0.0265032
521.635	0.02668039
521.84	0.0267476
522.046	0.02692908
522.251	0.02711244
522.457	0.02721679
522.662	0.02736869
522.868	0.02748699
523.073	0.02753461
523.279	0.02769958
523.484	0.02778836
523.689	0.02790264
523.895	0.02809704
524.1	0.02823724
524.305	0.0283601
524.511	0.02850234
524.716	0.02861072
524.921	0.02876518
525.126	0.02889808
525.332	0.0289967
525.537	0.02906557
525.742	0.0291675
525.947	0.02931128
526.153	0.02942575
526.358	0.02953644
526.563	0.02963338
526.768	0.02973068
526.973	0.02992045
527.178	0.03011987
527.383	0.0302442
527.588	0.03039937
527.794	0.03057066
527.999	0.03075006
528.204	0.03088124
528.409	0.0309962
528.614	0.03110236
528.819	0.03127673
529.024	0.03143142
529.229	0.03154636
529.434	0.03165223
529.639	0.03182382
529.843	0.03193722
530.048	0.03206658
530.253	0.03218883
530.458	0.03234535
530.663	0.0325011
530.868	0.03266231
531.073	0.03280913
531.278	0.03295383
531.482	0.03313872
531.687	0.0332498
531.892	0.033361
532.097	0.03346031
532.302	0.03363283
532.506	0.03377503
532.711	0.03397246
532.916	0.03408702
533.12	0.03424253
533.325	0.03441638
533.53	0.03460726
533.734	0.03469179
533.939	0.03483315
534.144	0.03496814
534.348	0.03513513
534.553	0.03530922
534.757	0.03542494
534.962	0.03559979
535.167	0.03582466
535.371	0.0359845
535.576	0.03616021
535.78	0.03633115
535.985	0.03649424
536.189	0.03671724
536.394	0.0368422
536.598	0.03696557
536.803	0.03712761
537.007	0.03731718
537.211	0.03750643
537.416	0.03771928
537.62	0.03786347
537.825	0.03807854
538.029	0.0382912
538.233	0.03850367
538.438	0.0386698
538.642	0.03881903
538.846	0.03893608
539.05	0.03910394
539.255	0.03922187
539.459	0.0393647
539.663	0.03950741
539.867	0.0396516
540.072	0.03983134
540.276	0.04004137
540.48	0.04020011
540.684	0.040377
540.888	0.04053834
541.092	0.04067333
541.297	0.04081979
541.501	0.04094078
541.705	0.0410688
541.909	0.04126793
542.113	0.04142734
542.317	0.04160787
542.521	0.0418144
542.725	0.04198933
542.929	0.04214757
543.133	0.0423491
543.337	0.04252576
543.541	0.04270769
543.745	0.04291032
543.949	0.04310254
544.153	0.04329256
544.357	0.04350853
544.56	0.0436358
544.764	0.04378088
544.968	0.04397304
545.172	0.04410328
545.376	0.04431172
545.58	0.04450544
545.783	0.0446962
545.987	0.04494969
546.191	0.04518278
546.395	0.04538822
546.598	0.04561772
546.802	0.04576314
547.006	0.04590098
547.21	0.04605813
547.413	0.04620037
547.617	0.04632328
547.821	0.04642818
548.024	0.04656152
548.228	0.04669197
548.431	0.04690025
548.635	0.04712956
548.839	0.04727042
549.042	0.04748246
549.246	0.04770978
549.449	0.04790814
549.653	0.04811801
549.856	0.04829875
550.06	0.04842957
550.263	0.04863645
550.467	0.04881576
550.67	0.04903634
550.874	0.04924526
551.077	0.04944957
551.28	0.04963386
551.484	0.04976689
551.687	0.04995102
551.891	0.05009675
552.094	0.05021859
552.297	0.05035721
552.501	0.05056593
552.704	0.05077394
552.907	0.05099909
553.11	0.05121316
553.314	0.05145378
553.517	0.05164261
553.72	0.05190311
553.923	0.05210587
554.127	0.05230056
554.33	0.05247573
554.533	0.05260352
554.736	0.05277346
554.939	0.05303418
555.142	0.05317585
555.345	0.05331663
555.549	0.05344864
555.752	0.0536842
555.955	0.05394221
556.158	0.05413484
556.361	0.05430761
556.564	0.05450913
556.767	0.05466602
556.97	0.05488507
557.173	0.05501403
557.376	0.05516785
557.579	0.05538206
557.782	0.05554704
557.984	0.05575315
558.187	0.05601479
558.39	0.05620365
558.593	0.05644414
558.796	0.05668374
558.999	0.05684514
559.202	0.05706881
559.404	0.05727984
559.607	0.05739596
559.81	0.05760879
560.013	0.05782152
560.216	0.05800291
560.418	0.05818666
560.621	0.05833457
560.824	0.05846502
561.026	0.05872894
561.229	0.05893219
561.432	0.0590828
561.634	0.05928145
561.837	0.05945458
562.04	0.05965027
562.242	0.05986942
562.445	0.06004224
562.647	0.0601685
562.85	0.06038155
563.053	0.06054941
563.255	0.06077121
563.458	0.06099767
563.66	0.061183
563.863	0.06140115
564.065	0.06165254
564.268	0.06185666
564.47	0.062069
564.672	0.06226351
564.875	0.06245464
565.077	0.06263364
565.28	0.06280724
565.482	0.06302172
565.684	0.06319859
565.887	0.06339469
566.089	0.0635738
566.291	0.06377398
566.494	0.06397121
566.696	0.06415892
566.898	0.06433452
567.1	0.06449579
567.303	0.06470344
567.505	0.06490426
567.707	0.06502795
567.909	0.06517863
568.111	0.0653128
568.314	0.0654332
568.516	0.06567943
568.718	0.06591956
568.92	0.06614887
569.122	0.06642309
569.324	0.06671295
569.526	0.06695881
569.728	0.06718429
569.93	0.06735115
570.132	0.0674341
570.334	0.06757812
570.536	0.06773038
570.738	0.06787769
570.94	0.06805074
571.142	0.06822074
571.344	0.0684094
571.546	0.06858897
571.748	0.06879876
571.95	0.06893593
572.152	0.0690839
572.354	0.06928576
572.555	0.06953905
572.757	0.06976299
572.959	0.06997262
573.161	0.07015626
573.363	0.07034428
573.564	0.07057775
573.766	0.07074046
573.968	0.07094165
574.17	0.07107313
574.371	0.07125271
574.573	0.07140437
574.775	0.07160567
574.976	0.07171732
575.178	0.07189933
575.38	0.07199681
575.581	0.0721437
575.783	0.07232761
575.985	0.07251203
576.186	0.07272088
576.388	0.07293263
576.589	0.07311319
576.791	0.07330758
576.992	0.07348582
577.194	0.07366513
577.395	0.07384551
577.597	0.07395249
577.798	0.07412304
578	0.07432697
578.201	0.07453162
578.402	0.07468796
578.604	0.0748248
578.805	0.07499301
579.007	0.07519106
579.208	0.07540587
579.409	0.07554687
579.611	0.07575914
579.812	0.0759991
580.013	0.07620978
580.215	0.07632234
580.416	0.07651105
580.617	0.07663708
580.818	0.07679108
581.019	0.07691335
581.221	0.0770413
581.422	0.07717185
581.623	0.07737527
581.824	0.07747877
582.025	0.07761755
582.226	0.07782312
582.428	0.07797698
582.629	0.07812765
582.83	0.07839259
583.031	0.07859297
583.232	0.07882638
583.433	0.07901506
583.634	0.07912331
583.835	0.07923613
584.036	0.07937215
584.237	0.07941252
584.438	0.07952567
584.639	0.07962716
584.84	0.07979268
585.041	0.07992007
585.242	0.08004209
585.442	0.08019974
585.643	0.0803993
585.844	0.08058892
586.045	0.08072133
586.246	0.08082719
586.447	0.08095697
586.647	0.08114856
586.848	0.08131823
587.049	0.08140673
587.25	0.08147383
587.45	0.08164929
587.651	0.08179606
587.852	0.08193268
588.053	0.08211544
588.253	0.08224668
588.454	0.08244311
588.655	0.08260536
588.855	0.08270141
589.056	0.08286701
589.256	0.08300187
589.457	0.08309729
589.658	0.08321563
589.858	0.083336
590.059	0.08341293
590.259	0.08356313
590.46	0.08367925
590.66	0.08387579
590.861	0.08402692
591.061	0.08415527
591.262	0.08424757
591.462	0.08442275
591.662	0.08457127
591.863	0.08467553
592.063	0.08477206
592.264	0.0849014
592.464	0.08507813
592.664	0.08523869
592.865	0.08541153
593.065	0.08550427
593.265	0.08564671
593.465	0.08575548
593.666	0.08582998
593.866	0.08592812
594.066	0.08607026
594.266	0.08616019
594.467	0.08632055
594.667	0.08643447
594.867	0.08658255
595.067	0.08676781
595.267	0.08684576
595.467	0.08694194
595.668	0.08708241
595.868	0.08717865
596.068	0.08725451
596.268	0.08730234
596.468	0.08734832
596.668	0.08744513
596.868	0.08752088
597.068	0.08755991
597.268	0.08764026
597.468	0.0877449
597.668	0.08786336
597.868	0.08795595
598.068	0.08810251
598.268	0.08818418
598.467	0.08834675
598.667	0.08840225
598.867	0.08847705
599.067	0.08856829
599.267	0.08864412
599.467	0.08868214
599.667	0.08877187
599.866	0.08885679
600.066	0.08900152
600.266	0.08912418
600.466	0.0892706
600.665	0.08937488
600.865	0.08952603
601.065	0.08963635
601.264	0.08969936
601.464	0.08978008
601.664	0.08990287
601.863	0.08994843
602.063	0.09006748
602.263	0.09010094
602.462	0.09020207
602.662	0.09028649
602.861	0.0903942
603.061	0.09043166
603.26	0.0904932
603.46	0.09049869
603.659	0.09053736
603.859	0.09054334
604.058	0.09056721
604.258	0.09058061
604.457	0.09065181
604.657	0.09064509
604.856	0.09073457
605.056	0.09085243
605.255	0.09093866
605.454	0.09101182
605.654	0.09104914
605.853	0.09109022
606.052	0.09119818
606.252	0.09121229
606.451	0.09123947
606.65	0.09126669
606.849	0.09131666
607.049	0.09141911
607.248	0.09148865
607.447	0.09152666
607.646	0.09159619
607.845	0.09163603
608.045	0.09165967
608.244	0.09176376
608.443	0.09176409
608.642	0.09181007
608.841	0.09185165
609.04	0.09190939
609.239	0.09199508
609.438	0.09203134
609.637	0.091994
609.836	0.09201192
610.035	0.09197864
610.234	0.09202102
610.433	0.09201974
610.632	0.0920202
610.831	0.09210566
611.03	0.09210897
611.229	0.0922001
611.428	0.09226714
611.627	0.09227503
611.826	0.09235606
612.025	0.09240197
612.224	0.09240664
612.422	0.09248926
612.621	0.09249769
612.82	0.09254272
613.019	0.09264533
613.218	0.09268437
613.416	0.09267314
613.615	0.09269323
613.814	0.09273902
614.012	0.09273934
614.211	0.09270117
614.41	0.09269254
614.608	0.09266132
614.807	0.09269305
615.006	0.09277135
615.204	0.09274555
615.403	0.09273466
615.602	0.09279889
615.8	0.09285677
615.999	0.09284734
616.197	0.09286967
616.396	0.09287986
616.594	0.09286002
616.793	0.09295132
616.991	0.09299763
617.19	0.09291301
617.388	0.09297977
617.586	0.09296598
617.785	0.09292211
617.983	0.09296344
618.182	0.09295261
618.38	0.0929019
618.578	0.09293733
618.777	0.09297434
618.975	0.09303124
619.173	0.09304892
619.372	0.09307743
619.57	0.09306054
619.768	0.09310498
619.966	0.09310274
620.165	0.09306704
620.363	0.09300811
620.561	0.09291301
620.759	0.09291244
620.957	0.09293152
621.155	0.09290097
621.354	0.09285792
621.552	0.09285746
621.75	0.09286138
621.948	0.09295807
622.146	0.09291205
622.344	0.0929072
622.542	0.09289264
622.74	0.09293278
622.938	0.09286307
623.136	0.0928685
623.334	0.09288644
623.532	0.0928288
623.73	0.09274988
623.928	0.09273423
624.126	0.0927032
624.324	0.09273761
624.522	0.09263774
624.719	0.092534
624.917	0.09253233
625.115	0.09247889
625.313	0.09246787
625.511	0.09246764
625.708	0.09235418
625.906	0.09236558
626.104	0.0923207
626.302	0.09235189
626.499	0.09236857
626.697	0.09233722
626.895	0.09228702
627.093	0.09231232
627.29	0.09229498
627.488	0.09229394
627.686	0.0922547
627.883	0.0921966
628.081	0.09212656
628.278	0.09217333
628.476	0.09207725
628.673	0.09203798
628.871	0.09201179
629.068	0.0919725
629.266	0.09200007
629.463	0.09196578
629.661	0.0918811
629.858	0.0918531
630.056	0.09183855
630.253	0.09177821
630.451	0.09177062
630.648	0.09169679
630.845	0.09165721
631.043	0.09160209
631.24	0.09161537
631.438	0.09158575
631.635	0.09151822
631.832	0.09139255
632.029	0.09137455
632.227	0.09132033
632.424	0.09125553
632.621	0.09118537
632.818	0.09102966
633.016	0.09100508
633.213	0.09093041
633.41	0.09087349
633.607	0.09080472
633.804	0.09074265
634.001	0.09070359
634.199	0.09071232
634.396	0.0906394
634.593	0.0905786
634.79	0.09050032
634.987	0.09048997
635.184	0.09045637
635.381	0.09038706
635.578	0.09037229
635.775	0.09032695
635.972	0.09027846
636.169	0.09029159
636.366	0.09023054
636.563	0.09014116
636.76	0.09004837
636.957	0.08997232
637.153	0.08983013
637.35	0.08977831
637.547	0.08967905
637.744	0.08960413
637.941	0.08957386
638.138	0.08954787
638.334	0.08945436
638.531	0.08953595
638.728	0.08946592
638.925	0.08938711
639.121	0.0892948
639.318	0.08919968
639.515	0.08912345
639.711	0.08906307
639.908	0.08886848
640.105	0.08882749
640.301	0.0887239
640.498	0.08861614
640.695	0.08857026
640.891	0.0884407
641.088	0.08837476
641.284	0.08837724
641.481	0.08829336
641.677	0.08824189
641.874	0.08819072
642.07	0.08810735
642.267	0.088075
642.463	0.08801788
642.66	0.08795356
642.856	0.08786995
643.053	0.08772437
643.249	0.0876355
643.445	0.08755734
643.642	0.08749595
643.838	0.08742831
644.034	0.08730875
644.231	0.08721257
644.427	0.08717811
644.623	0.08716617
644.82	0.08709713
645.016	0.08698603
645.212	0.08683566
645.408	0.08675669
645.604	0.08675671
645.801	0.0866808
645.997	0.0865734
646.193	0.08645984
646.389	0.08640443
646.585	0.08630403
646.781	0.08622122
646.977	0.08606376
647.173	0.08596852
647.37	0.08581826
647.566	0.08570831
647.762	0.08562232
647.958	0.08558762
648.154	0.08547461
648.35	0.0854124
648.546	0.08528964
648.742	0.08525039
648.937	0.0850879
649.133	0.08497204
649.329	0.08486638
649.525	0.08477999
649.721	0.08463541
649.917	0.08458973
650.113	0.08443297
650.309	0.08443091
650.504	0.08427563
650.7	0.08413966
650.896	0.08406994
651.092	0.08401576
651.287	0.08395451
651.483	0.08397567
651.679	0.08388802
651.875	0.08393076
652.07	0.08385951
652.266	0.08374214
652.462	0.08364569
652.657	0.08351052
652.853	0.08335991
653.048	0.08325376
653.244	0.0830363
653.44	0.08292616
653.635	0.08278387
653.831	0.08265497
654.026	0.0825622
654.222	0.08243585
654.417	0.08236603
654.613	0.082302
654.808	0.08221856
655.004	0.08218502
655.199	0.08209699
655.394	0.08198731
655.59	0.08196049
655.785	0.0818397
655.98	0.08176954
656.176	0.08160304
656.371	0.08151404
656.566	0.08142345
656.762	0.08128486
656.957	0.08113259
657.152	0.0810112
657.348	0.08090391
657.543	0.08087651
657.738	0.08074881
657.933	0.08063089
658.128	0.08057872
658.324	0.08044591
658.519	0.08037252
658.714	0.08023623
658.909	0.08007508
659.104	0.07997464
659.299	0.07989766
659.494	0.07976058
659.689	0.07968436
659.884	0.07955646
660.079	0.07943299
660.274	0.07939036
660.469	0.07930695
660.664	0.07918138
660.859	0.07905051
661.054	0.07895737
661.249	0.07884607
661.444	0.07877746
661.639	0.0786245
661.834	0.0784851
662.029	0.07842601
662.224	0.07836881
662.418	0.0782605
662.613	0.07820933
662.808	0.07809611
663.003	0.07807238
663.198	0.07801316
663.392	0.07789279
663.587	0.07782523
663.782	0.07767996
663.977	0.07755289
664.171	0.07747261
664.366	0.07735389
664.561	0.07723206
664.755	0.07717861
664.95	0.07703178
665.144	0.0769497
665.339	0.07681719
665.534	0.07665483
665.728	0.07649029
665.923	0.07639212
666.117	0.07615881
666.312	0.07599248
666.506	0.07586796
666.701	0.07574317
666.895	0.0756771
667.09	0.0755694
667.284	0.07545971
667.479	0.07539314
667.673	0.07533213
667.867	0.07527427
668.062	0.07518137
668.256	0.07511972
668.45	0.07509494
668.645	0.07501763
668.839	0.07495137
669.033	0.07484709
669.228	0.07472495
669.422	0.07465603
669.616	0.07448457
669.81	0.07433847
670.004	0.07414196
670.199	0.07404086
670.393	0.07396098
670.587	0.07384813
670.781	0.07374857
670.975	0.07368723
671.169	0.07356905
671.363	0.07352367
671.558	0.07341492
671.752	0.07331513
671.946	0.07323908
672.14	0.07310317
672.334	0.07293031
672.528	0.07291148
672.722	0.07279901
672.916	0.07266746
673.11	0.07255201
673.304	0.0724909
673.497	0.07237292
673.691	0.07230911
673.885	0.0720982
674.079	0.07197371
674.273	0.07181482
674.467	0.071689
674.661	0.07150446
674.854	0.07134823
675.048	0.07121091
675.242	0.07112583
675.436	0.07102732
675.629	0.07099332
675.823	0.07086045
676.017	0.07078071
676.211	0.070747
676.404	0.07071947
676.598	0.07064037
676.792	0.07054676
676.985	0.07042322
677.179	0.0703626
677.372	0.07028324
677.566	0.07025276
677.76	0.07017496
677.953	0.07010466
678.147	0.07005923
678.34	0.07002115
678.534	0.06991269
678.727	0.06983762
678.921	0.06975127
679.114	0.06960722
679.307	0.06952181
679.501	0.06943009
679.694	0.06928227
679.888	0.06920904
680.081	0.06913224
680.274	0.06898994
680.468	0.06893202
680.661	0.06886295
680.854	0.06878871
681.048	0.06879381
681.241	0.06868576
681.434	0.06856479
681.627	0.06849361
681.821	0.06843029
682.014	0.0683533
682.207	0.06822275
682.4	0.06806279
682.593	0.06799103
682.786	0.06791276
682.98	0.06777762
683.173	0.06767053
683.366	0.06753202
683.559	0.0674658
683.752	0.06741413
683.945	0.06735785
684.138	0.06729588
684.331	0.06720267
684.524	0.0671661
684.717	0.06708582
684.91	0.06701797
685.103	0.06691004
685.296	0.06685169
685.489	0.06676916
685.682	0.06669277
685.874	0.06652345
686.067	0.06639226
686.26	0.06627038
686.453	0.06616886
686.646	0.06601565
686.839	0.06590125
687.031	0.06585241
687.224	0.0657747
687.417	0.06573152
687.61	0.06562308
687.802	0.06554237
687.995	0.06548052
688.188	0.06541859
688.38	0.06525843
688.573	0.06514028
688.766	0.06507201
688.958	0.06500805
689.151	0.06493084
689.343	0.06485926
689.536	0.06472461
689.729	0.06469817
689.921	0.06466909
690.114	0.06451653
690.306	0.06444161
690.499	0.06437088
690.691	0.0642998
690.884	0.06432546
691.076	0.06429516
691.268	0.06422706
691.461	0.06421275
691.653	0.06416213
691.846	0.06412903
692.038	0.06405289
692.23	0.06386191
692.423	0.06376845
692.615	0.06363651
692.807	0.06353879
692.999	0.06344135
693.192	0.0633222
693.384	0.06327121
693.576	0.06322135
693.768	0.06313615
693.961	0.06306761
694.153	0.06298737
694.345	0.06287062
694.537	0.0627391
694.729	0.06255752
694.921	0.06241074
695.113	0.06230144
695.305	0.06223887
695.498	0.06215437
695.69	0.06211647
695.882	0.06208032
696.074	0.06207039
696.266	0.06209845
696.458	0.06205339
696.65	0.06203638
696.842	0.06204429
697.033	0.06205383
697.225	0.06202075
697.417	0.0619987
697.609	0.0619407
697.801	0.0618906
697.993	0.06182359
698.185	0.06172849
698.376	0.06163044
698.568	0.06157686
698.76	0.06152472
698.952	0.06142489
699.144	0.06133206
699.335	0.06124674
699.527	0.06115878
699.719	0.06104988
699.91	0.06101583
700.102	0.06090184
700.294	0.06086231
700.485	0.06082847
700.677	0.06076063
700.869	0.06068476
701.06	0.06063386
701.252	0.06052657
701.443	0.06046016
701.635	0.06037076
701.826	0.06029999
702.018	0.06029213
702.209	0.06028352
702.401	0.06022533
702.592	0.06019713
702.784	0.06019596
702.975	0.06020778
703.166	0.06018257
703.358	0.06008198
703.549	0.06003381
703.741	0.05996805
703.932	0.05986511
704.123	0.05978039
704.315	0.05968715
704.506	0.05963665
704.697	0.05958317
704.888	0.05953636
705.08	0.0595046
705.271	0.05947252
705.462	0.05938386
705.653	0.0593441
705.844	0.05924344
706.035	0.05915703
706.227	0.05906136
706.418	0.05902031
706.609	0.05899505
706.8	0.05898214
706.991	0.05897632
707.182	0.05897592
707.373	0.05894696
707.564	0.05888835
707.755	0.05882381
707.946	0.05878006
708.137	0.05875371
708.328	0.05861747
708.519	0.05852392
708.71	0.0584793
708.901	0.05843831
709.092	0.05837663
709.283	0.05827569
709.473	0.05820274
709.664	0.05819058
709.855	0.05816624
710.046	0.0581717
710.237	0.05820012
710.427	0.05821982
710.618	0.05822678
710.809	0.05823307
711	0.05822142
711.19	0.05814981
711.381	0.05810421
711.572	0.05802444
711.762	0.05797156
711.953	0.05791177
712.144	0.05785556
712.334	0.05782451
712.525	0.0577904
712.715	0.05769906
712.906	0.05766842
713.097	0.05765247
713.287	0.05764769
713.478	0.05760732
713.668	0.05756742
713.859	0.05760532
714.049	0.0576239
714.239	0.05753037
714.43	0.05738334
714.62	0.05723167
714.811	0.05712545
715.001	0.05699971
715.191	0.05687799
715.382	0.05679028
715.572	0.05677079
715.762	0.0567534
715.953	0.05676247
716.143	0.05673361
716.333	0.05665713
716.523	0.05664902
716.714	0.05663906
716.904	0.05662127
717.094	0.056641
717.284	0.05669319
717.474	0.05667115
717.664	0.05674026
717.855	0.05673531
718.045	0.05667937
718.235	0.05665951
718.425	0.05659685
718.615	0.05650901
718.805	0.05655232
718.995	0.05653525
719.185	0.05648345
719.375	0.05649938
719.565	0.05650533
719.755	0.05653237
719.945	0.05654248
720.135	0.05649598
720.325	0.05650949
720.515	0.05654956
720.704	0.05657442
720.894	0.05661906
721.084	0.05662887
721.274	0.05662005
721.464	0.05657085
721.654	0.05653754
721.843	0.05646862
722.033	0.056413
722.223	0.05632104
722.413	0.05622003
722.602	0.0562106
722.792	0.05620513
722.982	0.05615412
723.171	0.05611762
723.361	0.05605198
723.55	0.05605035
723.74	0.05609559
723.93	0.05604184
724.119	0.05603795
724.309	0.05599058
724.498	0.05599279
724.688	0.05599339
724.877	0.05591808
725.067	0.05584868
725.256	0.05581299
725.446	0.0557536
725.635	0.05577176
725.825	0.05580232
726.014	0.05586771
726.203	0.05588698
726.393	0.05589099
726.582	0.05588648
726.771	0.05590102
726.961	0.05588991
727.15	0.05579959
727.339	0.05570251
727.529	0.05567377
727.718	0.05562275
727.907	0.05557222
728.096	0.05550795
728.286	0.05541175
728.475	0.05539948
728.664	0.05532378
728.853	0.05522809
729.042	0.05519049
729.231	0.05511051
729.42	0.05510706
729.609	0.05510998
729.799	0.05509249
729.988	0.05509355
730.177	0.05513253
730.366	0.05509827
730.555	0.05515268
730.744	0.05508551
730.933	0.05507266
731.122	0.05497213
731.31	0.05494902
731.499	0.05481545
731.688	0.05482507
731.877	0.05473592
732.066	0.05471843
732.255	0.05465885
732.444	0.05468384
732.632	0.05467189
732.821	0.05476359
733.01	0.05473655
733.199	0.05470236
733.388	0.05466369
733.576	0.05466498
733.765	0.05462421
733.954	0.05456758
734.142	0.05445346
734.331	0.05437798
734.52	0.05440653
734.708	0.0543984
734.897	0.05435336
735.086	0.05436141
735.274	0.05438462
735.463	0.05442095
735.651	0.0544715
735.84	0.05445261
736.028	0.05444387
736.217	0.05444289
736.405	0.05437202
736.594	0.05426701
736.782	0.05420186
736.971	0.05412182
737.159	0.05414462
737.347	0.05417225
737.536	0.05421646
737.724	0.05426154
737.912	0.05427927
738.101	0.0542678
738.289	0.05426042
738.477	0.05420293
738.666	0.0541346
738.854	0.05408998
739.042	0.05401759
739.23	0.05397756
739.418	0.05396236
739.607	0.05399326
739.795	0.05398454
739.983	0.0539735
740.171	0.05390163
740.359	0.05385729
740.547	0.05383263
740.735	0.05376348
740.923	0.05364941
741.112	0.05354499
741.3	0.05345976
741.488	0.05340229
741.676	0.05341186
741.864	0.05338738
742.052	0.05346623
742.239	0.05349767
742.427	0.05357255
742.615	0.05364471
742.803	0.05367503
742.991	0.0537077
743.179	0.05374151
743.367	0.05371479
743.555	0.05369383
743.742	0.05366531
743.93	0.05369311
744.118	0.05369325
744.306	0.05366789
744.494	0.05368217
744.681	0.05360372
744.869	0.0535334
745.057	0.05343151
745.244	0.05340527
745.432	0.05337684
745.62	0.05340278
745.807	0.05332703
745.995	0.0533346
746.182	0.05334145
746.37	0.05326909
746.558	0.05314238
746.745	0.05306463
746.933	0.05296748
747.12	0.05290406
747.308	0.05289519
747.495	0.05292
747.683	0.05303076
747.87	0.05303079
748.057	0.05304931
748.245	0.05302878
748.432	0.05301588
748.62	0.0529609
748.807	0.05287575
748.994	0.05282241
749.182	0.05285501
749.369	0.05287213
749.556	0.05287455
749.743	0.05294701
749.931	0.05301169
750.118	0.05305819
750.305	0.05307719
750.492	0.05303547
750.68	0.05298206
750.867	0.05291813
751.054	0.0528704
751.241	0.05279103
751.428	0.05274211
751.615	0.05264795
751.802	0.05263148
751.989	0.05267315
752.176	0.05275708
752.363	0.05277964
752.55	0.0528283
752.737	0.05283352
752.924	0.05288479
753.111	0.05289149
753.298	0.05288859
753.485	0.05281125
753.672	0.05274405
753.859	0.05270544
754.046	0.05271765
754.233	0.05274243
754.42	0.05272041
754.606	0.0526725
754.793	0.05264739
754.98	0.05266014
755.167	0.05264455
755.353	0.05264509
755.54	0.05262489
755.727	0.05260568
755.914	0.05262452
756.1	0.05261983
756.287	0.05257621
756.474	0.05250236
756.66	0.05239399
756.847	0.05231129
757.033	0.05225814
757.22	0.05217238
757.407	0.05211198
757.593	0.05207647
757.78	0.05202365
757.966	0.05198511
758.153	0.05195549
758.339	0.05190642
758.526	0.05186451
758.712	0.05184894
758.898	0.0518217
759.085	0.05182853
759.271	0.05188609
759.458	0.05193355
759.644	0.05194974
759.83	0.05195612
760.017	0.05199282
760.203	0.05204308
760.389	0.05210926
760.576	0.05210717
760.762	0.05207126
760.948	0.05204061
761.134	0.05198789
761.32	0.0519216
761.507	0.05186793
761.693	0.0518083
761.879	0.05177955
762.065	0.05172492
762.251	0.05174841
762.437	0.05177703
762.623	0.05179634
762.809	0.05175536
762.995	0.05171237
763.181	0.05164021
763.367	0.05163477
763.553	0.05163558
763.739	0.05160193
763.925	0.05157315
764.111	0.05153679
764.297	0.05147499
764.483	0.05137999
764.669	0.05133048
764.855	0.05120716
765.041	0.0511747
765.227	0.051128
765.412	0.05113156
765.598	0.05116085
765.784	0.05124534
765.97	0.0512525
766.156	0.05124739
766.341	0.05120966
766.527	0.05115533
766.713	0.05111764
766.898	0.05111428
767.084	0.05112025
767.27	0.05111755
767.455	0.05117368
767.641	0.05117389
767.827	0.05126208
768.012	0.05128768
768.198	0.0513328
768.383	0.05132189
768.569	0.05120675
768.754	0.05115391
768.94	0.05114785
769.125	0.05105248
769.311	0.05098163
769.496	0.05084202
769.682	0.05075762
769.867	0.05076751
770.052	0.05076066
770.238	0.05067101
770.423	0.05060163
770.608	0.05060963
770.794	0.05059191
770.979	0.05054927
771.164	0.05050398
771.35	0.05047478
771.535	0.05052108
771.72	0.05056153
771.905	0.05047284
772.09	0.0503787
772.276	0.05032699
772.461	0.0503038
772.646	0.05026267
772.831	0.05019067
773.016	0.05010637
773.201	0.05010786
773.386	0.05018459
773.571	0.05018395
773.756	0.05019484
773.941	0.0500814
774.126	0.05005699
774.311	0.05003077
774.496	0.05001287
774.681	0.04993984
774.866	0.04989506
775.051	0.04985894
775.236	0.04982516
775.421	0.04976559
775.606	0.04970753
775.791	0.04962841
775.976	0.0496463
776.16	0.04963562
776.345	0.04962472
776.53	0.04972291
776.715	0.04975515
776.899	0.04977147
777.084	0.04981104
777.269	0.04972659
777.454	0.04965742
777.638	0.04955558
777.823	0.04944679
778.008	0.04936697
778.192	0.04932417
778.377	0.04926672
778.561	0.04920192
778.746	0.04921834
778.931	0.04920176
779.115	0.04909238
779.3	0.0490248
779.484	0.04894562
779.669	0.04887808
779.853	0.04888908
780.037	0.04887992
780.222	0.04883139
780.406	0.04883162
780.591	0.04879674
780.775	0.04878548
780.959	0.04869065
781.144	0.04864428
781.328	0.04857197
781.512	0.04858327
781.697	0.04858935
781.881	0.04857403
782.065	0.04854213
782.249	0.04858797
782.434	0.04861514
782.618	0.04863935
782.802	0.04864615
782.986	0.04859285
783.17	0.0485832
783.354	0.04856997
783.539	0.04850942
783.723	0.04840773
783.907	0.04832942
784.091	0.04825761
784.275	0.04823454
784.459	0.04819858
784.643	0.04821239
784.827	0.04821549
785.011	0.04820249
785.195	0.04810813
785.379	0.04798081
785.563	0.04790096
785.747	0.04774642
785.93	0.04754748
786.114	0.04739315
786.298	0.04733298
786.482	0.04732164
786.666	0.04732502
786.85	0.04729302
787.033	0.04734869
787.217	0.04742958
787.401	0.04744773
787.585	0.04740288
787.768	0.04735531
787.952	0.04732729
788.136	0.04731977
788.319	0.04725037
788.503	0.04714805
788.687	0.04719261
788.87	0.0471856
789.054	0.04716425
789.237	0.04715611
789.421	0.04711309
789.605	0.0470714
789.788	0.04705887
789.972	0.04689886
790.155	0.046772
790.338	0.04666688
790.522	0.04654842
790.705	0.04637451
790.889	0.04630832
791.072	0.04621339
791.256	0.04617869
791.439	0.04611089
791.622	0.04608711
791.806	0.0461332
791.989	0.04612878
792.172	0.04609569
792.355	0.04606529
792.539	0.04608073
792.722	0.04610884
792.905	0.04613737
793.088	0.04603624
793.271	0.04608099
793.455	0.04607694
793.638	0.04601836
793.821	0.04592912
794.004	0.04588574
794.187	0.04575061
794.37	0.04568001
794.553	0.04557576
794.736	0.04546222
794.919	0.04536626
795.102	0.04529039
795.285	0.04518815
795.468	0.04511532
795.651	0.04512476
795.834	0.04513033
796.017	0.04516166
796.2	0.04520297
796.383	0.04522761
796.566	0.04518495
796.749	0.0451114
796.931	0.04494691
797.114	0.04480971
797.297	0.04461756
797.48	0.04449789
797.663	0.04435122
797.845	0.04426381
798.028	0.04425979
798.211	0.04430863
798.393	0.04432062
798.576	0.04433855
798.759	0.04431474
798.941	0.04427359
799.124	0.04429308
799.307	0.04425596
799.489	0.04416426
799.672	0.04405037
799.854	0.04403219
800.037	0.04404288
800.219	0.04406696
800.402	0.0440881
800.584	0.04400508
800.767	0.04392287
800.949	0.04394221
801.132	0.04389843
801.314	0.04378091
801.496	0.04369239
801.679	0.04352686
801.861	0.0435377
802.043	0.04356033
802.226	0.04355267
802.408	0.04353397
802.59	0.04349256
802.772	0.04345795
802.955	0.04346585
803.137	0.04334981
803.319	0.04327098
803.501	0.04320387
803.684	0.04313744
803.866	0.04313983
804.048	0.04315341
804.23	0.04310536
804.412	0.04310822
804.594	0.04296978
804.776	0.04292404
804.958	0.04288105
805.14	0.04279507
805.322	0.04270865
805.504	0.04261565
805.686	0.04260497
805.868	0.04264093
806.05	0.04254227
806.232	0.04246288
806.414	0.04244788
806.596	0.04237621
806.778	0.04229753
806.96	0.04218036
807.141	0.04211362
807.323	0.04206254
807.505	0.04194717
807.687	0.04182594
807.869	0.04167634
808.05	0.0415622
808.232	0.04139079
808.414	0.04126965
808.595	0.04115556
808.777	0.04111721
808.959	0.04099469
809.14	0.04093884
809.322	0.04089296
809.504	0.04094036
809.685	0.04094461
809.867	0.04093839
810.048	0.04094437
810.23	0.04103529
810.411	0.04105016
810.593	0.04111586
810.774	0.04111526
810.956	0.04115132
811.137	0.04110761
811.319	0.041057
811.5	0.0409235
811.681	0.04084093
811.863	0.04079422
812.044	0.04074859
812.225	0.04065675
812.407	0.04069461
812.588	0.04067859
812.769	0.04069774
812.951	0.04063035
813.132	0.0404751
813.313	0.04028131
813.494	0.04012371
813.675	0.0399106
813.857	0.03973519
814.038	0.03963923
814.219	0.03960626
814.4	0.0395845
814.581	0.03958489
814.762	0.03953439
814.943	0.03949235
815.124	0.03942624
815.305	0.0392911
815.486	0.03921469
815.667	0.03910192
815.848	0.03906253
816.029	0.03905094
816.21	0.03901687
816.391	0.03897171
816.572	0.03896177
816.753	0.03893436
816.934	0.03890958
817.115	0.03885001
817.295	0.03877255
817.476	0.03870474
817.657	0.03872263
817.838	0.03866381
818.019	0.03854613
818.199	0.0384306
818.38	0.038348
818.561	0.03832459
818.741	0.0382532
818.922	0.03807641
819.103	0.03802786
819.283	0.03795852
819.464	0.03792674
819.645	0.0378999
819.825	0.03780368
820.006	0.0377596
820.186	0.03771551
820.367	0.03765394
820.547	0.03764766
820.728	0.03757538
820.908	0.03744828
821.089	0.03736396
821.269	0.03731052
821.45	0.03728024
821.63	0.03716791
821.81	0.03702249
821.991	0.03691843
822.171	0.03687146
822.351	0.03679393
822.532	0.03664484
822.712	0.03647351
822.892	0.03631223
823.072	0.03622809
823.253	0.03615813
823.433	0.03604034
823.613	0.03598353
823.793	0.03598065
823.973	0.03600601
824.154	0.03606438
824.334	0.03602305
824.514	0.03606855
824.694	0.03609731
824.874	0.03605919
825.054	0.035904
825.234	0.03576845
825.414	0.03561723
825.594	0.03564216
825.774	0.0354638
825.954	0.03536736
826.134	0.03527966
826.314	0.03521411
826.494	0.03528752
826.674	0.03525505
826.854	0.03522287
827.033	0.03530872
827.213	0.03529413
827.393	0.03515659
827.573	0.03511523
827.753	0.03496584
827.932	0.03484572
828.112	0.03459837
828.292	0.03438842
828.472	0.03423967
828.651	0.03422946
828.831	0.0341894
829.011	0.03409938
829.19	0.03410645
829.37	0.03411461
829.549	0.03406703
829.729	0.03396732
829.909	0.03386637
830.088	0.03379196
830.268	0.03374642
830.447	0.03365901
830.627	0.03369036
830.806	0.03375827
830.986	0.03375835
831.165	0.03380038
831.344	0.03384951
831.524	0.03387197
831.703	0.03384726
831.883	0.03372977
832.062	0.03356411
832.241	0.03343752
832.421	0.03329167
832.6	0.03306574
832.779	0.03285607
832.958	0.03270528
833.138	0.03260713
833.317	0.03251971
833.496	0.03254486
833.675	0.03242962
833.854	0.03243
834.034	0.03240456
834.213	0.03236722
834.392	0.03227209
834.571	0.03216572
834.75	0.03205954
834.929	0.03209667
835.108	0.032028
835.287	0.03199586
835.466	0.03197516
835.645	0.03196915
835.824	0.03194191
836.003	0.03184701
836.182	0.03169327
836.361	0.03161597
836.54	0.03153509
836.719	0.03144196
836.897	0.03126229
837.076	0.03112695
837.255	0.03096113
837.434	0.03085911
837.613	0.03073732
837.791	0.03066206
837.97	0.03054959
838.149	0.03051008
838.328	0.03053661
838.506	0.03055565
838.685	0.03055561
838.864	0.03051617
839.042	0.03041097
839.221	0.0303699
839.4	0.03028754
839.578	0.03011042
839.757	0.02992615
839.935	0.02972329
840.114	0.02959293
840.292	0.02945501
840.471	0.02929867
840.649	0.02928853
840.828	0.02933381
841.006	0.02936277
841.185	0.02942293
841.363	0.02938772
841.541	0.02936918
841.72	0.0293874
841.898	0.02922114
842.076	0.0290931
842.255	0.02898113
842.433	0.02880594
842.611	0.02868777
842.789	0.02865268
842.968	0.02862388
843.146	0.02867749
843.324	0.02867147
843.502	0.02876279
843.68	0.02881444
843.859	0.02892181
844.037	0.02882443
844.215	0.02877467
844.393	0.02857196
844.571	0.0284785
844.749	0.02830072
844.927	0.02815884
845.105	0.02796317
845.283	0.02793463
845.461	0.02775955
845.639	0.02778633
845.817	0.02783638
845.995	0.02788389
846.173	0.02789294
846.351	0.02789772
846.529	0.02785204
846.706	0.027838
846.884	0.02772827
847.062	0.02748555
847.24	0.02728855
847.418	0.02722203
847.595	0.02712545
847.773	0.02704093
847.951	0.02695664
848.129	0.02691748
848.306	0.02692356
848.484	0.02697545
848.662	0.02690424
848.839	0.02684985
849.017	0.02682813
849.194	0.02686387
849.372	0.02683745
849.549	0.02673782
849.727	0.02648864
849.905	0.02637815
850.082	0.0262141
850.26	0.02606304
850.437	0.0259134
850.614	0.02583425
850.792	0.02579008
850.969	0.02579089
851.147	0.02574573
851.324	0.0257595
851.501	0.02574915
851.679	0.02564341
851.856	0.02557623
852.033	0.0254371
852.211	0.02538712
852.388	0.02519396
852.565	0.02503398
852.742	0.02485943
852.92	0.02482064
853.097	0.02470553
853.274	0.02465816
853.451	0.02456503
853.628	0.02456119
853.805	0.02467862
853.982	0.02465724
854.159	0.02460053
854.336	0.02461904
854.514	0.0245918
854.691	0.02447976
854.868	0.02443926
855.045	0.02423151
855.221	0.0242264
855.398	0.02412589
855.575	0.02404157
855.752	0.02392097
855.929	0.02394468
856.106	0.02389031
856.283	0.02392472
856.46	0.02390647
856.637	0.02391104
856.813	0.0239085
856.99	0.02397746
857.167	0.02389294
857.344	0.02389698
857.52	0.02372927
857.697	0.02362301
857.874	0.02347553
858.05	0.02326996
858.227	0.02310657
858.404	0.02312516
858.58	0.02309907
858.757	0.02305717
858.933	0.02292626
859.11	0.02298792
859.287	0.0229985
859.463	0.02291321
859.64	0.02278968
859.816	0.02266482
859.993	0.02265955
860.169	0.02256001
860.345	0.02238029
860.522	0.02224304
860.698	0.02211948
860.875	0.02197746
861.051	0.02189998
861.227	0.0218614
861.404	0.02186581
861.58	0.02177938
861.756	0.02174938
861.932	0.02175766
862.109	0.02174124
862.285	0.02167057
862.461	0.02155353
862.637	0.02147799
862.813	0.02153683
862.99	0.02157645
863.166	0.02151259
863.342	0.02153412
863.518	0.02143898
863.694	0.02144934
863.87	0.02143453
864.046	0.02137698
864.222	0.02115576
864.398	0.02109135
864.574	0.02100432
864.75	0.0210129
864.926	0.02079397
865.102	0.02074721
865.278	0.02060002
865.454	0.02064109
865.63	0.02060403
865.805	0.02047038
865.981	0.02037404
866.157	0.02035868
866.333	0.02027244
866.509	0.02027883
866.684	0.02012437
866.86	0.02002435
867.036	0.02000222
867.212	0.01995847
867.387	0.01995939
867.563	0.01995747
867.739	0.01981728
867.914	0.01977732
868.09	0.01971491
868.265	0.01961692
868.441	0.0194702
868.617	0.01941516
868.792	0.01927526
868.968	0.0192747
869.143	0.01933052
869.319	0.01926253
869.494	0.01922409
869.67	0.01930103
869.845	0.01912404
870.02	0.01907565
870.196	0.01896417
870.371	0.0188415
870.546	0.01883752
870.722	0.01878524
870.897	0.01859558
871.072	0.01861006
871.248	0.01852797
871.423	0.01849641
871.598	0.01832148
871.773	0.01822671
871.949	0.01823008
872.124	0.01834099
872.299	0.0184148
872.474	0.01848277
872.649	0.01855004
872.824	0.01873825
872.999	0.01883063
873.174	0.01871771
873.349	0.01859729
873.524	0.01840198
873.699	0.01822129
873.874	0.01807176
874.049	0.01787402
874.224	0.01766949
874.399	0.01765585
874.574	0.01759546
874.749	0.01755994
874.924	0.01744179
875.099	0.01729549
875.274	0.01723107
875.449	0.01714985
875.623	0.01698868
875.798	0.0169155
875.973	0.01678609
876.148	0.01681335
876.322	0.01676536
876.497	0.01672283
876.672	0.01671292
876.846	0.01680741
877.021	0.01676801
877.196	0.01688362
877.37	0.01696649
877.545	0.01710233
877.72	0.01718255
877.894	0.01731637
878.069	0.01722923
878.243	0.01714835
878.418	0.01701939
878.592	0.016759
878.767	0.01658349
878.941	0.01644071
879.116	0.016096
879.29	0.0159911
879.464	0.01596624
879.639	0.01588358
879.813	0.01597762
879.987	0.01598704
880.162	0.01589145
880.336	0.01596601
880.51	0.01592228
880.685	0.01589514
880.859	0.01586531
881.033	0.01580817
881.207	0.01557276
881.381	0.01555174
881.556	0.01551323
881.73	0.01537634
881.904	0.01529117
882.078	0.01522006
882.252	0.01507287
882.426	0.01513494
882.6	0.0151273
882.774	0.01512698
882.948	0.01518952
883.122	0.01503346
883.296	0.01501471
883.47	0.01494704
883.644	0.01478148
883.818	0.01460431
883.992	0.01442
884.166	0.01425733
884.34	0.01426392
884.514	0.0141811
884.687	0.01411553
884.861	0.01421681
885.035	0.01420154
885.209	0.01427042
885.382	0.01439103
885.556	0.01448184
885.73	0.01457147
885.904	0.01467116
886.077	0.01466276
886.251	0.01472268
886.425	0.01476929
886.598	0.01469081
886.772	0.01458229
886.945	0.01445091
887.119	0.01425796
887.292	0.0141216
887.466	0.0140315
887.64	0.01389359
887.813	0.01384522
887.986	0.01386218
888.16	0.01391564
888.333	0.01410454
888.507	0.01422823
888.68	0.01429684
888.854	0.01420192
889.027	0.01418777
889.2	0.01398236
889.374	0.0137781
889.547	0.01347369
889.72	0.01322668
889.893	0.01296409
890.067	0.01296996
890.24	0.01285794
890.413	0.01290855
890.586	0.01297777
890.759	0.01309141
890.933	0.01318698
891.106	0.01333221
891.279	0.01332078
891.452	0.01339951
891.625	0.01332341
891.798	0.01317764
891.971	0.01307644
892.144	0.01289203
892.317	0.0126661
892.49	0.01254798
892.663	0.01233592
892.836	0.01215448
893.009	0.01212467
893.182	0.01204364
893.355	0.01208754
893.527	0.0121023
893.7	0.01213096
893.873	0.0122641
894.046	0.012433
894.219	0.01248278
894.391	0.0125002
894.564	0.01234854
894.737	0.01223323
894.91	0.0121146
895.082	0.01193555
895.255	0.0116095
895.428	0.01145751
895.6	0.01133204
895.773	0.01129941
895.945	0.01125889
896.118	0.01128078
896.291	0.01127825
896.463	0.01156748
896.636	0.01162803
896.808	0.01170844
896.981	0.01175293
897.153	0.01171181
897.326	0.01158036
897.498	0.01144839
897.67	0.01116946
897.843	0.01105794
898.015	0.01081863
898.187	0.0107341
898.36	0.01080208
898.532	0.01084577
898.704	0.01089067
898.877	0.01100962
899.049	0.01107425
899.221	0.01116761
899.393	0.01125292
899.566	0.01120092
899.738	0.01115819
899.91	0.01108822
900.082	0.01104956
900.254	0.01092859
900.426	0.01081622
900.598	0.01067544
900.77	0.01061276
900.942	0.01052704
901.114	0.01052532
901.286	0.01033837
901.458	0.01026091
901.63	0.0101879
901.802	0.0101198
901.974	0.01002752
902.146	0.00996136
902.318	0.00985181
902.49	0.00978022
902.662	0.00958322
902.834	0.00950978
903.005	0.00935588
903.177	0.00928994
903.349	0.00921772
903.521	0.00911007
903.693	0.00896436
903.864	0.00895635
904.036	0.00897966
904.208	0.00906868
904.379	0.00904939
904.551	0.0091445
904.723	0.00927972
904.894	0.00951393
905.066	0.00970453
905.237	0.00982961
905.409	0.00980926
905.58	0.00980426
905.752	0.0097017
905.923	0.00951528
906.095	0.00940812
906.266	0.00917857
906.438	0.00884374
906.609	0.00869579
906.78	0.0085476
906.952	0.0084178
907.123	0.00838389
907.295	0.00833683
907.466	0.00839208
907.637	0.00854105
907.808	0.00861726
907.98	0.00873269
908.151	0.00887989
908.322	0.00900412
908.493	0.00909484
908.665	0.00917462
908.836	0.00920327
909.007	0.00924761
909.178	0.00926505
909.349	0.00913282
909.52	0.00910577
909.691	0.00892283
909.862	0.00877058
910.033	0.0087485
910.204	0.00875532
910.375	0.00876345
910.546	0.00887705
910.717	0.00893268
910.888	0.00913469
911.059	0.00925656
911.23	0.0091916
911.401	0.00909111
911.572	0.00907694
911.742	0.0089372
911.913	0.00875987
912.084	0.00855516
912.255	0.00831016
912.426	0.00821525
912.596	0.00809906
912.767	0.00793568
912.938	0.00783197
913.108	0.0077512
913.279	0.00764456
913.45	0.00764581
913.62	0.00774028
913.791	0.00778347
913.962	0.0077765
914.132	0.0077079
914.303	0.00761019
914.473	0.00753079
914.644	0.00748045
914.814	0.00722179
914.985	0.00707755
915.155	0.00685652
915.326	0.00670799
915.496	0.00666131
915.666	0.00665777
915.837	0.0065109
916.007	0.00660066
916.177	0.00656957
916.348	0.00662603
916.518	0.00671609
916.688	0.00679883
916.858	0.00680225
917.029	0.00693363
917.199	0.00691622
917.369	0.00696512
917.539	0.00693226
917.709	0.00693495
917.88	0.00688727
918.05	0.00694231
918.22	0.00694936
918.39	0.00699761
918.56	0.00698871
918.73	0.00705305
918.9	0.00711614
919.07	0.00708044
919.24	0.00709744
919.41	0.00700831
919.58	0.00689425
919.75	0.00686556
919.92	0.00680474
920.09	0.00675029
920.26	0.00668907
920.429	0.00668027
920.599	0.00661197
920.769	0.0066774
920.939	0.00664615
921.109	0.00670987
921.278	0.00663146
921.448	0.0067325
921.618	0.00659396
921.787	0.00672681
921.957	0.00661852
922.127	0.00670599
922.296	0.00669479
922.466	0.00683569
922.636	0.00687743
922.805	0.00687263
922.975	0.00684081
923.144	0.00691835
923.314	0.00683295
923.483	0.00685616
923.653	0.00667649
923.822	0.00649331
923.992	0.00637887
924.161	0.00628009
924.331	0.00610376
924.5	0.00599291
924.669	0.00584546
924.839	0.00574681
925.008	0.00566926
925.177	0.00564059
925.347	0.00559202
925.516	0.00561174
925.685	0.00555934
925.854	0.0055538
926.023	0.00559407
926.193	0.00562785
926.362	0.00566648
926.531	0.00567653
926.7	0.00562797
926.869	0.00565762
927.038	0.00559668
927.207	0.00556231
927.376	0.00548219
927.545	0.00542365
927.715	0.00532617
927.884	0.0052683
928.052	0.00516508
928.221	0.00495268
928.39	0.00489393
928.559	0.00477671
928.728	0.00486116
928.897	0.00497481
929.066	0.0051901
929.235	0.00547716
929.404	0.00570657
929.572	0.00584564
929.741	0.0060795
929.91	0.00599086
930.079	0.00592879
930.247	0.00577198
930.416	0.0056158
930.585	0.00552532
930.753	0.00553539
930.922	0.00553355
931.091	0.00565218
931.259	0.00575541
931.428	0.00576953
931.596	0.00576071
931.765	0.00567057
931.934	0.0056496
932.102	0.00545939
932.27	0.00541637
932.439	0.00519834
932.607	0.00513334
932.776	0.00508342
932.944	0.00535976
933.113	0.00518733
933.281	0.00512249
933.449	0.00503844
933.618	0.00508256
933.786	0.0048781
933.954	0.00473605
934.123	0.00436781
934.291	0.00436881
934.459	0.00434949
934.627	0.00440618
934.795	0.00443605
934.964	0.00460516
935.132	0.0046273
935.3	0.00477011
935.468	0.00497274
935.636	0.00484261
935.804	0.0047032
935.972	0.00451957
936.14	0.004551
936.308	0.0044228
936.476	0.00453968
936.644	0.00447631
936.812	0.00483181
936.98	0.0050091
937.148	0.00516998
937.316	0.00503983
937.484	0.00518266
937.652	0.00514056
937.82	0.005071
937.987	0.00520007
938.155	0.00520479
938.323	0.00518191
938.491	0.00524274
938.658	0.00540971
938.826	0.00562369
938.994	0.00582795
939.162	0.00607874
939.329	0.00643927
939.497	0.00687048
939.665	0.0070331
939.832	0.0069337
940	0.00759597
940.167	0.00716162
940.335	0.00683766
940.502	0.0066552
940.67	0.00686367
940.837	0.00689612
941.005	0.0071945
941.172	0.00680569
941.34	0.00756613
941.507	0.00765762
941.674	0.00801334
941.842	0.00763824
942.009	0.00811019
942.177	0.0081505
942.344	0.00751649
942.511	0.00738944
942.678	0.00821134
942.846	0.00735285
943.013	0.00824584
943.18	0.00815261
943.347	0.0088863
943.514	0.0086527
943.682	0.00819435
943.849	0.00808055
944.016	0.0084718
944.183	0.00787506
944.35	0.00829887
944.517	0.00715704
944.684	0.00741754
944.851	0.00817312
945.018	0.00735113
945.185	0.00744716
945.352	0.00756281
945.519	0.0075309
945.686	0.00815842
945.853	0.00872501
946.02	0.00895248
946.187	0.00890985
946.353	0.0087285
946.52	0.00825083
946.687	0.00734565
946.854	0.00705931
947.021	0.00685109
947.187	0.00596135
947.354	0.00570022
947.521	0.00632417
947.687	0.00634257
947.854	0.00680157
948.021	0.00706362
948.187	0.00709096
948.354	0.00643605
948.52	0.00709043
948.687	0.00709921
948.854	0.00759987
949.02	0.00762305
949.187	0.00734076
949.353	0.00679633
949.52	0.00763363
949.686	0.00773425
949.852	0.00616563
950.019	0.00602562
950.185	0.006035
950.352	0.00631423
950.518	0.00652644
950.684	0.00609847
950.851	0.00589621
951.017	0.00701748
951.183	0.00665235
951.349	0.00657813
951.516	0.00633532
951.682	0.00642055
951.848	0.00687821
952.014	0.00666608
952.18	0.00635536
952.346	0.00642495
952.512	0.00646035
952.679	0.00622626
952.845	0.00596295
953.011	0.00509823
953.177	0.00496572
953.343	0.00513331
953.509	0.00498532
953.675	0.00452793
953.841	0.0043651
954.007	0.00436231
954.172	0.00437718
954.338	0.00462044
954.504	0.00417246
954.67	0.00424616
954.836	0.00415546
955.002	0.00393766
955.167	0.00395596
955.333	0.00420677
955.499	0.00393541
955.665	0.00406004
955.83	0.00376073
955.996	0.00375824
956.162	0.00404844
956.327	0.00427479
956.493	0.00421268
956.659	0.00412798
956.824	0.00433981
956.99	0.00432839
957.155	0.00445081
957.321	0.0045906
957.486	0.00446039
957.652	0.00447569
957.817	0.00497106
957.983	0.00503811
958.148	0.00499896
958.314	0.00489934
958.479	0.00453139
958.644	0.00469889
958.81	0.00503846
958.975	0.00459958
959.14	0.00392612
959.306	0.00412987
959.471	0.00404664
959.636	0.00408252
959.801	0.00373021
959.967	0.00325333
960.132	0.00303145
960.297	0.00362181
960.462	0.00353939
960.627	0.00386062
960.792	0.00402142
960.957	0.00440168
961.123	0.00403988
961.288	0.00372365
961.453	0.00349045
961.618	0.00337009
961.783	0.00319448
961.948	0.00299399
962.113	0.00274166
962.277	0.00312226
962.442	0.00353273
962.607	0.00355051
962.772	0.00372271
962.937	0.00331934
963.102	0.00333291
963.267	0.00334526
963.431	0.00360112
963.596	0.00346371
963.761	0.00355807
963.926	0.00337551
964.09	0.00346309
964.255	0.00345639
964.42	0.00294949
964.584	0.0026108
964.749	0.00250084
964.914	0.0023296
965.078	0.00227598
965.243	0.00247199
965.407	0.00235055
965.572	0.00244549
965.736	0.00251143
965.901	0.00258943
966.065	0.0028296
966.23	0.00296145
966.394	0.00289958
966.559	0.00266076
966.723	0.00262276
966.887	0.00222694
967.052	0.00250278
967.216	0.00216597
967.38	0.00221619
967.545	0.0022513
967.709	0.00271781
967.873	0.00312689
968.037	0.00369103
968.202	0.00342524
968.366	0.00334969
968.53	0.00311991
968.694	0.00290692
968.858	0.00271295
969.022	0.00254743
969.187	0.00256706
969.351	0.00241048
969.515	0.00287512
969.679	0.00294395
969.843	0.0034093
970.007	0.00390022
970.171	0.00345172
970.335	0.00277635
970.499	0.00265239
970.662	0.0022361
970.826	0.0021155
970.99	0.00189107
971.154	0.0013658
971.318	0.00182168
971.482	0.00191095
971.645	0.00217888
971.809	0.00241145
971.973	0.00198841
972.137	0.00184355
972.3	0.00176323
972.464	0.00199228
972.628	0.00248454
972.791	0.00224355
972.955	0.0020522
973.119	0.00284737
973.282	0.00288244
973.446	0.0030669
973.609	0.00258627
973.773	0.00250737
973.936	0.00219808
974.1	0.00164701
974.263	0.00146903
974.427	0.00139369
974.59	0.00123452
974.754	0.00141128
974.917	0.00102239
975.08	0.00163822
975.244	0.0020248
975.407	0.00187974
975.57	0.00202074
975.734	0.00141052
975.897	0.00133885
976.06	0.00117927
976.223	0.00133359
976.387	0.00139518
976.55	0.00114251
976.713	0.00148279
976.876	0.0022813
977.039	0.00237959
977.202	0.00288704
977.365	0.00270306
977.528	0.00262805
977.692	0.00315517
977.855	0.00260463
978.018	0.00258626
978.181	0.00267219
978.344	0.00255701
978.506	0.00253366
978.669	0.0023994
978.832	0.00199336
978.995	0.00211882
979.158	0.00222131
979.321	0.00204761
979.484	0.00214438
979.646	0.00204466
979.809	0.00209201
979.972	0.00226872
980.135	0.00234422
980.297	0.00256572
980.46	0.00228403
980.623	0.00256
980.786	0.00242911
980.948	0.00296315
981.111	0.00305871
981.273	0.00311359
981.436	0.00299989
981.599	0.00374817
981.761	0.00389211
981.924	0.0039711
982.086	0.00388551
982.249	0.0034334
982.411	0.00315628
982.573	0.00264003
982.736	0.002541
982.898	0.00221705
983.061	0.00223194
983.223	0.0022235
983.385	0.00263983
983.548	0.00272675
983.71	0.00334139
983.872	0.00295229
984.034	0.00298764
984.197	0.00309133
984.359	0.00297714
984.521	0.00305471
984.683	0.00291632
984.845	0.00211936
985.008	0.00199639
985.17	0.00182518
985.332	0.001742
985.494	0.00122433
985.656	0.00083572
985.818	0.00121948
985.98	0.00150092
986.142	0.00157319
986.304	0.0014451
986.466	0.0015064
986.628	0.0020397
986.79	0.00224083
986.952	0.00234782
987.113	0.0025131
987.275	0.00268659
987.437	0.00283877
987.599	0.00302353
987.761	0.00254415
987.922	0.00306373
988.084	0.0022026
988.246	0.00190744
988.408	0.0016477
988.569	0.00140525
988.731	0.00114855
988.893	0.00164469
989.054	0.00145874
989.216	0.00211775
989.377	0.00199606
989.539	0.00234272
989.701	0.00246209
989.862	0.00250129
990.024	0.00194973
990.185	0.00130418
990.347	0.00120195
990.508	0.00144949
990.669	0.00182413
990.831	0.00219679
990.992	0.00227364
991.154	0.00241481
991.315	0.00218035
991.476	0.00245365
991.638	0.00266355
991.799	0.00228964
991.96	0.00185036
992.121	0.00153545
992.283	0.00228448
992.444	0.00272114
992.605	0.00309586
992.766	0.00345834
992.927	0.00348216
993.088	0.00404554
993.249	0.00472896
993.41	0.0048584
993.572	0.00483494
993.733	0.00420602
993.894	0.00410932
994.055	0.00337427
994.216	0.00338619
994.376	0.00315856
994.537	0.00213239
994.698	0.00188109
994.859	0.00167369
995.02	0.00139824
995.181	0.00222546
995.342	0.00183046
995.503	0.00165161
995.663	0.00152289
995.824	0.00221744
995.985	0.00249296
996.146	0.00341533
996.306	0.00376504
996.467	0.00359268
996.628	0.00390753
996.788	0.00393743
996.949	0.00474278
997.11	0.00492972
997.27	0.003316
997.431	0.00228638
997.591	0.0028399
997.752	0.00197483
997.912	0.00267204
998.073	0.00158608
998.233	0.00130098
998.394	0.00210111
998.554	0.00205567
998.714	0.0022412
998.875	0.00290685
999.035	0.00285772
999.196	0.00294882
999.356	0.00314146
999.516	0.00233643
999.676	0.00298737
999.837	0.00285438
999.997	0.00270095
1000.157	0.002417
1000.317	0.0030576
1000.477	0.00312663
1000.638	0.00347004
1000.798	0.00371246
1000.958	0.00344883
1001.118	0.00299059
1001.278	0.00332717
1001.438	0.00298757
1001.598	0.00293524
1001.758	0.00325144
1001.918	0.00227594
1002.078	0.00237735
1002.238	0.0027272
1002.398	0.00302088
1002.558	0.00273487
1002.718	0.00229287
1002.878	0.0026688
1003.037	0.00269586
1003.197	0.00196196
1003.357	0.00205472
1003.517	0.00255555
1003.677	0.0033146
1003.836	0.00350387
1003.996	0.00296307
1004.156	0.00381691
1004.315	0.00396086
1004.475	0.0041752
1004.635	0.00335221
1004.794	0.00251053
1004.954	0.001745
1005.114	0.00186383
1005.273	0.00232849
1005.433	0.00175043
1005.592	0.00186444
1005.752	0.00268496
1005.911	0.00324319
1006.071	0.00357901
1006.23	0.00421402
1006.389	0.0036544
1006.549	0.00487559
1006.708	0.00513965
1006.868	0.00370487
1007.027	0.00337878
1007.186	0.00408366
1007.345	0.00308924
1007.505	0.0025442
1007.664	0.00180649
1007.823	0.00180759
1007.982	0.00249285
1008.142	0.00315222
1008.301	0.00351053
1008.46	0.00511907
1008.619	0.00559227
1008.778	0.00558828
1008.937	0.00486122
1009.096	0.00468755
1009.255	0.00386804
1009.414	0.00319762
1009.573	0.00259239
1009.732	0.0020015
1009.891	0.00148785
1010.05	0.0015825
1010.209	0.00181941
1010.368	0.00283966
1010.527	0.00434788
1010.686	0.00505776
1010.845	0.0052603
1011.003	0.00628113
1011.162	0.00718386
1011.321	0.00700346
1011.48	0.00701172
1011.638	0.00617067
1011.797	0.00483933
1011.956	0.00347094
1012.115	0.0048039
1012.273	0.00420707
1012.432	0.00455046
1012.59	0.00419611
1012.749	0.00392285
1012.908	0.00416697
1013.066	0.00700639
1013.225	0.00524774
1013.383	0.00612675
1013.542	0.00594093
1013.7	0.00553396
1013.859	0.00550807
1014.017	0.00484747
1014.175	0.00564614
1014.334	0.00559953
1014.492	0.00408925
1014.65	0.00473829
1014.809	0.00451633
1014.967	0.00355614
1015.125	0.00354521
1015.284	0.00156758
1015.442	0.00424792
1015.6	0.00580095
1015.758	0.00497794
1015.916	0.00424014
1016.075	0.00576005
1016.233	0.00632876
1016.391	0.00648616
1016.549	0.00412791
1016.707	0.00341649
1016.865	0.00335261
1017.023	0.00497382
1017.181	0.00464775
1017.339	0.00618882
1017.497	0.00679686
1017.655	0.00756411
1017.813	0.00815778
1017.971	0.00859349
1018.129	0.00953329
1018.286	0.0093829
1018.444	0.01007834
1018.602	0.0116097
1018.76	0.0119661
1018.918	0.01133581
1019.075	0.00899879
1019.233	0.0091571
1019.391	0.01065764
1019.549	0.00842365
1019.706	0.00815594
1019.864	0.00826966
1020.022	0.00880132
1020.179	0.01269657
1020.337	0.01025395
1020.494	0.01001089
1020.652	0.00939107
1020.809	0.00844323
1020.967	0.00860162
1021.124	0.01101733
1021.282	0.00979317
1021.439	0.01034718
1021.597	0.00884902
1021.754	0.01013475
1021.911	0.00721296
1022.069	0.00859087
1022.226	0.00502058
1022.384	0.00511774
1022.541	0.00514233
1022.698	0.00649781
1022.855	0.00846409
1023.013	0.01080093
1023.17	0.01191704
1023.327	0.01353638
1023.484	0.01292753
1023.641	0.01240603
1023.798	0.01345264
1023.956	0.01220615
1024.113	0.0104125
1024.27	0.01035765
1024.427	0.01022588
1024.584	0.00696501
1024.741	0.00694591
1024.898	0.00574935
1025.055	0.00142793
1025.212	0.00295122
1025.369	-0.0002047
1025.525	0.00346812
1025.682	0.00762615
1025.839	0.01111175
1025.996	0.01284685
1026.153	0.02054166
1026.31	0.02161447
1026.466	0.02515727
1026.623	0.0234564
1026.78	0.02342452
1026.937	0.01840284
1027.093	0.01758029
1027.25	0.01310467
1027.407	0.01225879
1027.563	0.00761338
1027.72	0.00407873
1027.876	0.00747862
1028.033	0.00821278
1028.19	0.00701826
1028.346	0.01045667
1028.503	0.0106968
1028.659	0.01421048
1028.816	0.01565647
1028.972	0.01354034
1029.128	0.01511302
1029.285	0.01821628
1029.441	0.02119947
1029.598	0.02189285
1029.754	0.02045116
1029.91	0.01895322
1030.067	0.0199259
1030.223	0.02300049
1030.379	0.02479298
1030.535	0.02527957
1030.691	0.02492101
1030.848	0.02717861
1031.004	0.02499607
1031.16	0.02776607
1031.316	0.02876179
1031.472	0.02236785
1031.628	0.01765583
1031.784	0.01679945
1031.94	0.01580203
1032.096	0.0153937
1032.252	0.00688858
1032.408	0.00493093
1032.564	0.00669443
1032.72	-0.00309451
1032.876	0.00315735
1033.032	0.00259096
1033.188	0.00875807
1033.344	0.00850506
1033.5	0.003562
1033.655	0.00202549
1033.811	0.00982721
1033.967	-0.000806
