Data from 0_1_mm_pl_90pc_Absorbance__0__18-36-44-700.txt Node

Date: Wed Mar 01 18:36:44 CET 2023
User: Ange
Spectrometer: FLMT08341
Trigger mode: 0
Integration Time (sec): 1.000000E-2
Scans to average: 400
Electric dark correction enabled: true
Nonlinearity correction enabled: false
Boxcar width: 3
XAxis mode: Wavelengths
Number of Pixels in Spectrum: 3648
>>>>>Begin Spectral Data<<<<<
345.271	-0.02770232
345.487	-0.01752876
345.704	-0.01818202
345.921	-0.03406034
346.137	-0.03106973
346.354	-0.03182252
346.571	-0.01398046
346.787	0.04361932
347.004	0.04915436
347.22	-0.10135718
347.437	-0.39988001
347.653	-0.60891454
347.87	0.38297684
348.086	-0
348.303	-0.025536
348.519	0.05509397
348.736	0.02851705
348.952	0.02805107
349.169	0.0299401
349.385	0.03245495
349.601	0.03478805
349.818	0.03397817
350.034	0.03318064
350.251	0.03360242
350.467	0.03462659
350.683	0.03407748
350.9	0.03310998
351.116	0.03357551
351.332	0.03341756
351.549	0.03434807
351.765	0.03530318
351.981	0.03516958
352.197	0.0354187
352.414	0.03505544
352.63	0.03385383
352.846	0.03506334
353.062	0.03209591
353.278	0.03055715
353.495	0.03164956
353.711	0.03347177
353.927	0.03379137
354.143	0.03343652
354.359	0.03307784
354.575	0.03409638
354.792	0.03435375
355.008	0.03299075
355.224	0.03125313
355.44	0.03094575
355.656	0.03023012
355.872	0.02924963
356.088	0.02985003
356.304	0.03057685
356.52	0.0298955
356.736	0.02919679
356.952	0.02861405
357.168	0.02821209
357.384	0.02819508
357.6	0.02801737
357.816	0.02687725
358.032	0.02747143
358.248	0.02975667
358.464	0.02985061
358.679	0.03069605
358.895	0.03080695
359.111	0.02916029
359.327	0.02818142
359.543	0.02660471
359.759	0.02611473
359.974	0.02599573
360.19	0.02555974
360.406	0.02557516
360.622	0.02695008
360.838	0.02782854
361.053	0.02862767
361.269	0.02773085
361.485	0.02819548
361.701	0.02718767
361.916	0.02643202
362.132	0.02563659
362.348	0.02570584
362.563	0.02670784
362.779	0.02439757
362.995	0.02330294
363.21	0.02387012
363.426	0.02465713
363.641	0.02378149
363.857	0.02292368
364.073	0.0216002
364.288	0.02373294
364.504	0.02477115
364.719	0.02498218
364.935	0.02330738
365.15	0.02322222
365.366	0.02286631
365.581	0.02302239
365.797	0.02178068
366.012	0.02101526
366.228	0.02102625
366.443	0.0220092
366.658	0.02231855
366.874	0.02235474
367.089	0.02221342
367.305	0.02184858
367.52	0.02267625
367.735	0.02151346
367.951	0.02097669
368.166	0.02088002
368.381	0.02126725
368.597	0.02077502
368.812	0.02148535
369.027	0.02039928
369.243	0.02080118
369.458	0.02084737
369.673	0.02098958
369.888	0.02073175
370.104	0.02104934
370.319	0.02017533
370.534	0.02089427
370.749	0.02090273
370.964	0.01984004
371.179	0.01984196
371.395	0.01939822
371.61	0.01885494
371.825	0.01911962
372.04	0.01844618
372.255	0.01850073
372.47	0.0193922
372.685	0.01946026
372.9	0.01934755
373.115	0.01997527
373.33	0.0203031
373.545	0.02057878
373.76	0.02015627
373.975	0.01981181
374.19	0.01961707
374.405	0.0198943
374.62	0.01888579
374.835	0.02018861
375.05	0.02017107
375.265	0.02097415
375.48	0.02132055
375.695	0.02105621
375.91	0.02108845
376.125	0.02143773
376.339	0.02027332
376.554	0.01960008
376.769	0.01941132
376.984	0.01942458
377.199	0.019107
377.414	0.01939054
377.628	0.01963048
377.843	0.01914514
378.058	0.01964059
378.273	0.01993529
378.487	0.01930709
378.702	0.01953529
378.917	0.01931537
379.131	0.01896803
379.346	0.01902656
379.561	0.01892205
379.775	0.01863152
379.99	0.0192039
380.205	0.01913246
380.419	0.01917563
380.634	0.01881238
380.848	0.01901899
381.063	0.01947646
381.278	0.0189524
381.492	0.01838464
381.707	0.01849593
381.921	0.01817295
382.136	0.01951192
382.35	0.01884534
382.565	0.01847759
382.779	0.01859863
382.994	0.01865259
383.208	0.01879991
383.422	0.01873282
383.637	0.01840696
383.851	0.01864563
384.066	0.01852581
384.28	0.01839465
384.494	0.01834633
384.709	0.01807843
384.923	0.01848134
385.137	0.01763106
385.352	0.01790077
385.566	0.01758857
385.78	0.01774529
385.995	0.01789763
386.209	0.01775674
386.423	0.01768942
386.637	0.01749472
386.852	0.01710718
387.066	0.01722556
387.28	0.01728825
387.494	0.01762754
387.708	0.01782806
387.923	0.01774661
388.137	0.01817237
388.351	0.01863143
388.565	0.01891493
388.779	0.01899573
388.993	0.01861143
389.207	0.01878441
389.421	0.0186046
389.635	0.01871447
389.85	0.01815144
390.064	0.01773185
390.278	0.01725564
390.492	0.01736136
390.706	0.01731735
390.92	0.01784034
391.134	0.01756986
391.348	0.01821562
391.561	0.01857171
391.775	0.01889572
391.989	0.01890673
392.203	0.01869721
392.417	0.01813633
392.631	0.01813514
392.845	0.01788072
393.059	0.01797206
393.273	0.01777188
393.486	0.01747754
393.7	0.01726912
393.914	0.01716275
394.128	0.01713533
394.342	0.01664248
394.555	0.01640957
394.769	0.01614049
394.983	0.01605211
395.197	0.01632042
395.41	0.01666427
395.624	0.01665691
395.838	0.01694139
396.051	0.01705772
396.265	0.01718007
396.479	0.01723267
396.692	0.0172088
396.906	0.01714854
397.12	0.01686421
397.333	0.01691758
397.547	0.01639267
397.76	0.01677377
397.974	0.01675112
398.187	0.01684171
398.401	0.0164871
398.614	0.01721311
398.828	0.01709238
399.041	0.01738101
399.255	0.01730136
399.468	0.01762192
399.682	0.01730931
399.895	0.01749943
400.109	0.01713716
400.322	0.01714495
400.536	0.01687743
400.749	0.01683507
400.962	0.01704917
401.176	0.0172209
401.389	0.01712966
401.602	0.01701079
401.816	0.01716671
402.029	0.01746033
402.242	0.01711554
402.456	0.01677415
402.669	0.01661458
402.882	0.01668473
403.095	0.01666974
403.309	0.01633495
403.522	0.01626006
403.735	0.01651223
403.948	0.01658744
404.161	0.01663469
404.375	0.01661715
404.588	0.01685796
404.801	0.01705102
405.014	0.01690631
405.227	0.01688366
405.44	0.01677595
405.653	0.01698994
405.866	0.01697534
406.079	0.01652712
406.293	0.01657204
406.506	0.01648292
406.719	0.01633796
406.932	0.01634532
407.145	0.016013
407.358	0.01593759
407.571	0.01605662
407.784	0.0160185
407.996	0.0160539
408.209	0.01595797
408.422	0.01586715
408.635	0.01592682
408.848	0.01581064
409.061	0.015871
409.274	0.01581671
409.487	0.01570184
409.7	0.01580836
409.912	0.0156169
410.125	0.01549002
410.338	0.01546852
410.551	0.01521378
410.764	0.01535474
410.976	0.01544502
411.189	0.01538118
411.402	0.01537994
411.615	0.01548548
411.827	0.01550311
412.04	0.01572203
412.253	0.01509939
412.465	0.01536265
412.678	0.01527581
412.891	0.01532585
413.103	0.01506182
413.316	0.01523376
413.529	0.0153096
413.741	0.01554447
413.954	0.01510761
414.166	0.01500978
414.379	0.01511089
414.591	0.01511648
414.804	0.01491985
415.016	0.01479086
415.229	0.01487163
415.441	0.01510919
415.654	0.01541289
415.866	0.01554375
416.079	0.01560307
416.291	0.0156375
416.504	0.01566245
416.716	0.01562649
416.928	0.01531371
417.141	0.01510504
417.353	0.01506983
417.566	0.01516186
417.778	0.01521197
417.99	0.014933
418.203	0.01490857
418.415	0.01500883
418.627	0.01480465
418.839	0.01451075
419.052	0.01433583
419.264	0.01419449
419.476	0.01443771
419.688	0.01470842
419.901	0.01488915
420.113	0.01487856
420.325	0.01486066
420.537	0.01508737
420.749	0.01506712
420.961	0.01515241
421.174	0.01485752
421.386	0.01452427
421.598	0.01466649
421.81	0.01442174
422.022	0.01422493
422.234	0.0140006
422.446	0.01398954
422.658	0.01388011
422.87	0.0139844
423.082	0.01386375
423.294	0.01407946
423.506	0.01393577
423.718	0.01391156
423.93	0.0136791
424.142	0.01359794
424.354	0.01366494
424.566	0.01364911
424.778	0.01355922
424.99	0.01358499
425.202	0.01375033
425.414	0.0136254
425.625	0.01369855
425.837	0.01350541
426.049	0.01333792
426.261	0.01325246
426.473	0.01307881
426.684	0.01285056
426.896	0.01292867
427.108	0.0129311
427.32	0.01291432
427.531	0.01292508
427.743	0.0128141
427.955	0.01276375
428.167	0.01284378
428.378	0.01265474
428.59	0.0123982
428.802	0.01231169
429.013	0.01217175
429.225	0.0121069
429.436	0.01219283
429.648	0.01200848
429.86	0.01206215
430.071	0.0120697
430.283	0.01204242
430.494	0.01195338
430.706	0.0119601
430.917	0.01197497
431.129	0.01184753
431.34	0.0117214
431.552	0.01168372
431.763	0.01168907
431.975	0.01181221
432.186	0.01175902
432.398	0.01159104
432.609	0.01166916
432.821	0.01160349
433.032	0.01166156
433.243	0.01164579
433.455	0.01162126
433.666	0.01156134
433.877	0.01162276
434.089	0.01154759
434.3	0.01158462
434.511	0.01145898
434.723	0.01124679
434.934	0.01114695
435.145	0.01108455
435.356	0.01094697
435.568	0.01087739
435.779	0.0107795
435.99	0.01072816
436.201	0.01062339
436.412	0.01046907
436.624	0.01053109
436.835	0.01045132
437.046	0.01044746
437.257	0.01042682
437.468	0.01040611
437.679	0.01041164
437.89	0.01051307
438.101	0.0103414
438.312	0.01031421
438.523	0.01029205
438.734	0.01025633
438.945	0.01004281
439.156	0.01009451
439.367	0.00996654
439.578	0.01002355
439.789	0.0099913
440	0.00984086
440.211	0.00962753
440.422	0.00974424
440.633	0.00957923
440.844	0.00946389
441.055	0.00920783
441.266	0.00921527
441.477	0.00910156
441.687	0.00925153
441.898	0.00911569
442.109	0.00911473
442.32	0.00909913
442.531	0.00911662
442.741	0.00893925
442.952	0.00891169
443.163	0.00867742
443.374	0.00860253
443.584	0.00855248
443.795	0.00849202
444.006	0.00835397
444.216	0.00834827
444.427	0.00832904
444.638	0.00821495
444.848	0.00825688
445.059	0.00816765
445.27	0.00797057
445.48	0.00805475
445.691	0.00808677
445.901	0.00803325
446.112	0.00802866
446.323	0.00794867
446.533	0.0078194
446.744	0.00770836
446.954	0.0075117
447.165	0.0074255
447.375	0.00734406
447.586	0.00715438
447.796	0.00687973
448.006	0.00693045
448.217	0.00712035
448.427	0.00710128
448.638	0.00687905
448.848	0.00680985
449.058	0.0068792
449.269	0.0070059
449.479	0.00693695
449.689	0.00689182
449.9	0.00685862
450.11	0.00691781
450.32	0.00701277
450.531	0.00699108
450.741	0.00699223
450.951	0.00701595
451.161	0.00697855
451.372	0.00703725
451.582	0.00685737
451.792	0.00680612
452.002	0.00678036
452.212	0.00675249
452.422	0.00660816
452.633	0.00650101
452.843	0.00637339
453.053	0.00646674
453.263	0.0062847
453.473	0.00621752
453.683	0.00604474
453.893	0.00593032
454.103	0.00589105
454.313	0.00591605
454.523	0.00575691
454.733	0.00579292
454.943	0.0057714
455.153	0.00575216
455.363	0.00585196
455.573	0.00577665
455.783	0.00579683
455.993	0.00575355
456.203	0.00567496
456.413	0.00574379
456.623	0.00579327
456.833	0.00579385
457.042	0.0056602
457.252	0.00560117
457.462	0.00559596
457.672	0.00562851
457.882	0.00555173
458.091	0.00541785
458.301	0.00523869
458.511	0.00531172
458.721	0.00517035
458.931	0.00518442
459.14	0.00502687
459.35	0.00485053
459.56	0.00481359
459.769	0.00475251
459.979	0.00472614
460.189	0.00477829
460.398	0.00455267
460.608	0.00452938
460.817	0.0045762
461.027	0.0046101
461.237	0.00463443
461.446	0.0046217
461.656	0.00450849
461.865	0.00462802
462.075	0.00460437
462.284	0.00453991
462.494	0.00445326
462.703	0.00438576
462.913	0.00434441
463.122	0.00421174
463.332	0.00414499
463.541	0.00422109
463.751	0.00408101
463.96	0.00406339
464.169	0.00413409
464.379	0.00407608
464.588	0.00420598
464.797	0.00415766
465.007	0.00409322
465.216	0.0042269
465.425	0.00417024
465.635	0.00404141
465.844	0.00402911
466.053	0.00391683
466.263	0.00381739
466.472	0.00375874
466.681	0.00374127
466.89	0.0037523
467.099	0.00380427
467.309	0.00377556
467.518	0.00380252
467.727	0.00393414
467.936	0.00386641
468.145	0.00379335
468.354	0.00379541
468.563	0.00371907
468.772	0.00371721
468.982	0.00376905
469.191	0.00371595
469.4	0.0037087
469.609	0.00365919
469.818	0.00363013
470.027	0.00362597
470.236	0.00356085
470.445	0.00345986
470.654	0.00355246
470.863	0.00362862
471.072	0.00367297
471.28	0.00365623
471.489	0.00358651
471.698	0.00364994
471.907	0.00359453
472.116	0.00348663
472.325	0.00332244
472.534	0.00322519
472.743	0.00320476
472.951	0.00327469
473.16	0.00322542
473.369	0.0032388
473.578	0.00333505
473.786	0.00344189
473.995	0.00351112
474.204	0.00350991
474.413	0.00354963
474.621	0.00355656
474.83	0.00364808
475.039	0.00359866
475.247	0.0035272
475.456	0.0035138
475.665	0.00349478
475.873	0.00348388
476.082	0.00347604
476.291	0.00337615
476.499	0.00339162
476.708	0.00348366
476.916	0.00358919
477.125	0.00351859
477.333	0.00345394
477.542	0.00335555
477.75	0.00343789
477.959	0.00340102
478.167	0.00337672
478.376	0.00326674
478.584	0.00335803
478.793	0.00337122
479.001	0.00344735
479.209	0.00342242
479.418	0.00334025
479.626	0.00339934
479.834	0.00339528
480.043	0.00330965
480.251	0.00325787
480.459	0.00330824
480.668	0.00327047
480.876	0.00328715
481.084	0.00322047
481.293	0.0031811
481.501	0.00329056
481.709	0.00336411
481.917	0.00332268
482.125	0.00331185
482.334	0.00342728
482.542	0.00333503
482.75	0.00341965
482.958	0.00340063
483.166	0.0034271
483.374	0.00344839
483.583	0.00349663
483.791	0.00341151
483.999	0.0035309
484.207	0.00349943
484.415	0.00346848
484.623	0.00343237
484.831	0.0034352
485.039	0.00341034
485.247	0.00344128
485.455	0.00341376
485.663	0.00344622
485.871	0.0034596
486.079	0.00344349
486.287	0.00342182
486.495	0.00347423
486.702	0.00350314
486.91	0.00354339
487.118	0.00351036
487.326	0.00353639
487.534	0.00359822
487.742	0.00368715
487.95	0.00367105
488.157	0.00364431
488.365	0.00365445
488.573	0.00373288
488.781	0.00370956
488.988	0.00368594
489.196	0.00366361
489.404	0.00372854
489.612	0.00375997
489.819	0.00374517
490.027	0.00372461
490.235	0.00380699
490.442	0.0039135
490.65	0.00392003
490.857	0.0039104
491.065	0.00392305
491.273	0.00396484
491.48	0.00395399
491.688	0.00395612
491.895	0.00391699
492.103	0.00393732
492.31	0.00394485
492.518	0.00396962
492.725	0.00398617
492.933	0.00406003
493.14	0.0041054
493.348	0.00407112
493.555	0.00414635
493.763	0.00416726
493.97	0.0041785
494.177	0.00419735
494.385	0.00421559
494.592	0.00426737
494.8	0.00433949
495.007	0.00435984
495.214	0.00441259
495.422	0.00449092
495.629	0.00454136
495.836	0.00451492
496.043	0.00447858
496.251	0.00453507
496.458	0.0045543
496.665	0.00462153
496.872	0.00462958
497.08	0.00465746
497.287	0.00473836
497.494	0.00478338
497.701	0.0048081
497.908	0.0047907
498.115	0.00482129
498.322	0.00488743
498.53	0.00494132
498.737	0.00497348
498.944	0.00502382
499.151	0.00508387
499.358	0.00516722
499.565	0.00520312
499.772	0.00525059
499.979	0.00534843
500.186	0.00539064
500.393	0.00542982
500.6	0.00537161
500.807	0.00536233
501.014	0.00531707
501.221	0.00535818
501.427	0.00532286
501.634	0.00535131
501.841	0.0053812
502.048	0.00544926
502.255	0.00548579
502.462	0.00550453
502.669	0.00546687
502.875	0.00550871
503.082	0.00551922
503.289	0.00557487
503.496	0.0056104
503.702	0.00568459
503.909	0.0057488
504.116	0.00578889
504.323	0.0057793
504.529	0.00588917
504.736	0.00588864
504.943	0.00596939
505.149	0.00600449
505.356	0.00606698
505.563	0.00611558
505.769	0.00618259
505.976	0.00619056
506.182	0.00622464
506.389	0.00623792
506.595	0.0062171
506.802	0.00628133
507.008	0.00639644
507.215	0.00648603
507.421	0.00654013
507.628	0.00661521
507.834	0.0066614
508.041	0.00677318
508.247	0.00679819
508.454	0.00679799
508.66	0.00681642
508.866	0.00685174
509.073	0.0069222
509.279	0.00693911
509.486	0.00696076
509.692	0.00702673
509.898	0.00711235
510.105	0.0071753
510.311	0.00724413
510.517	0.00724381
510.723	0.00730316
510.93	0.00734793
511.136	0.00735067
511.342	0.00733635
511.548	0.00738847
511.754	0.00749051
511.961	0.00758609
512.167	0.00768323
512.373	0.0077478
512.579	0.00784711
512.785	0.0078713
512.991	0.00786866
513.197	0.00783908
513.404	0.00785021
513.61	0.00787955
513.816	0.00796992
514.022	0.00801939
514.228	0.00815318
514.434	0.00823193
514.64	0.00827468
514.846	0.00834341
515.052	0.00841297
515.258	0.00845877
515.464	0.00854393
515.669	0.00857953
515.875	0.00864839
516.081	0.00873422
516.287	0.00880572
516.493	0.00886116
516.699	0.00889851
516.905	0.00896917
517.111	0.00902041
517.316	0.00905709
517.522	0.00917692
517.728	0.00925648
517.934	0.00929711
518.139	0.00935023
518.345	0.00937213
518.551	0.00942177
518.757	0.00951573
518.962	0.00951863
519.168	0.00956609
519.374	0.00966876
519.579	0.00973256
519.785	0.00980051
519.991	0.00986361
520.196	0.00993713
520.402	0.01002601
520.607	0.01011084
520.813	0.01016603
521.018	0.01024922
521.224	0.01030355
521.429	0.01042582
521.635	0.01049253
521.84	0.0105476
522.046	0.01060548
522.251	0.01067577
522.457	0.01077226
522.662	0.01089049
522.868	0.010971
523.073	0.01105078
523.279	0.01114152
523.484	0.01126296
523.689	0.0113393
523.895	0.01145101
524.1	0.01153291
524.305	0.01154263
524.511	0.01158512
524.716	0.01165867
524.921	0.01171364
525.126	0.01176207
525.332	0.01177526
525.537	0.01180849
525.742	0.01194932
525.947	0.01205497
526.153	0.01212778
526.358	0.01225372
526.563	0.0123972
526.768	0.0125336
526.973	0.01266478
527.178	0.01275849
527.383	0.01282293
527.588	0.01294217
527.794	0.01297922
527.999	0.0130856
528.204	0.013173
528.409	0.01319882
528.614	0.01323782
528.819	0.01332932
529.024	0.01341121
529.229	0.01351791
529.434	0.01359411
529.639	0.01365499
529.843	0.0138183
530.048	0.01395456
530.253	0.01405686
530.458	0.01414379
530.663	0.01421517
530.868	0.01428317
531.073	0.01436529
531.278	0.01443088
531.482	0.01453548
531.687	0.01470239
531.892	0.01478535
532.097	0.0148972
532.302	0.01502039
532.506	0.01514243
532.711	0.01525485
532.916	0.01534254
533.12	0.01541074
533.325	0.01553668
533.53	0.0156286
533.734	0.01573682
533.939	0.01587987
534.144	0.01599107
534.348	0.01610689
534.553	0.0161968
534.757	0.01627242
534.962	0.01637337
535.167	0.01645573
535.371	0.01650252
535.576	0.01659332
535.78	0.01672109
535.985	0.01682391
536.189	0.01697616
536.394	0.01712568
536.598	0.01723948
536.803	0.01737179
537.007	0.01749514
537.211	0.01757528
537.416	0.01767738
537.62	0.01776409
537.825	0.01790487
538.029	0.01808313
538.233	0.01823384
538.438	0.01833758
538.642	0.01842068
538.846	0.01853217
539.05	0.01868982
539.255	0.018771
539.459	0.01882087
539.663	0.01888859
539.867	0.01902999
540.072	0.01916245
540.276	0.01930999
540.48	0.0193948
540.684	0.01951939
540.888	0.01969813
541.092	0.01982706
541.297	0.01993805
541.501	0.02006861
541.705	0.02018916
541.909	0.02032163
542.113	0.02042576
542.317	0.02059877
542.521	0.02073774
542.725	0.02093709
542.929	0.02114882
543.133	0.02132663
543.337	0.02146525
543.541	0.02162743
543.745	0.02171911
543.949	0.02188564
544.153	0.0219864
544.357	0.02206395
544.56	0.02217727
544.764	0.02230019
544.968	0.02240754
545.172	0.02254875
545.376	0.02265386
545.58	0.02278057
545.783	0.02295873
545.987	0.02308904
546.191	0.02321736
546.395	0.02334231
546.598	0.02345071
546.802	0.02358739
547.006	0.02373499
547.21	0.0238632
547.413	0.02401412
547.617	0.0242205
547.821	0.02444336
548.024	0.02460863
548.228	0.02474878
548.431	0.02491083
548.635	0.02504556
548.839	0.02521811
549.042	0.0253485
549.246	0.02546623
549.449	0.02564837
549.653	0.02589204
549.856	0.02606446
550.06	0.02622143
550.263	0.0263922
550.467	0.02656298
550.67	0.02675996
550.874	0.02692213
551.077	0.02700801
551.28	0.0271881
551.484	0.0273737
551.687	0.02750859
551.891	0.02765471
552.094	0.02778298
552.297	0.02796173
552.501	0.02817148
552.704	0.02828988
552.907	0.02842483
553.11	0.02865397
553.314	0.02885355
553.517	0.02904948
553.72	0.02916401
553.923	0.02939518
554.127	0.02956658
554.33	0.02976236
554.533	0.02992067
554.736	0.03010176
554.939	0.03024137
555.142	0.03044859
555.345	0.03053293
555.549	0.03071068
555.752	0.03087264
555.955	0.03097671
556.158	0.03110035
556.361	0.03128917
556.564	0.03144664
556.767	0.03164185
556.97	0.03182713
557.173	0.03200288
557.376	0.03218996
557.579	0.03240765
557.782	0.03258292
557.984	0.03278443
558.187	0.03302254
558.39	0.03322084
558.593	0.03346668
558.796	0.03367077
558.999	0.03385135
559.202	0.0341022
559.404	0.03424847
559.607	0.03437561
559.81	0.03455567
560.013	0.03472087
560.216	0.0349605
560.418	0.03516344
560.621	0.03531204
560.824	0.03551846
561.026	0.0357531
561.229	0.03590304
561.432	0.0360904
561.634	0.03622889
561.837	0.03641622
562.04	0.03660899
562.242	0.03683902
562.445	0.03697899
562.647	0.03725042
562.85	0.03746718
563.053	0.03770291
563.255	0.03793213
563.458	0.03819455
563.66	0.03838806
563.863	0.03865052
564.065	0.03886745
564.268	0.03905087
564.47	0.03926137
564.672	0.03944409
564.875	0.03958299
565.077	0.0398147
565.28	0.04001331
565.482	0.04021977
565.684	0.04042254
565.887	0.04062502
566.089	0.04085418
566.291	0.04108139
566.494	0.04128
566.696	0.04148278
566.898	0.04171338
567.1	0.04195721
567.303	0.04220484
567.505	0.04238417
567.707	0.04259223
567.909	0.04282346
568.111	0.04304737
568.314	0.04324562
568.516	0.0434648
568.718	0.04365654
568.92	0.04398318
569.122	0.0442223
569.324	0.04445201
569.526	0.04464522
569.728	0.04485911
569.93	0.04507085
570.132	0.04530171
570.334	0.04544648
570.536	0.04564373
570.738	0.04585205
570.94	0.04606563
571.142	0.04628717
571.344	0.04649409
571.546	0.04671134
571.748	0.04693016
571.95	0.04717251
572.152	0.04739131
572.354	0.04768421
572.555	0.04793245
572.757	0.04819551
572.959	0.04845327
573.161	0.04869087
573.363	0.04894335
573.564	0.0491836
573.766	0.04935945
573.968	0.0495677
574.17	0.04979243
574.371	0.05002532
574.573	0.05022127
574.775	0.05039019
574.976	0.05058598
575.178	0.0508552
575.38	0.05106749
575.581	0.05126007
575.783	0.051477
575.985	0.0517359
576.186	0.05202235
576.388	0.05229153
576.589	0.05253314
576.791	0.05282639
576.992	0.05310152
577.194	0.053322
577.395	0.05357784
577.597	0.05381106
577.798	0.05406161
578	0.05428719
578.201	0.05451655
578.402	0.05475495
578.604	0.05503163
578.805	0.05525059
579.007	0.05550019
579.208	0.05575651
579.409	0.05599698
579.611	0.05622593
579.812	0.05646213
580.013	0.05668307
580.215	0.05693649
580.416	0.0571802
580.617	0.05739214
580.818	0.05762392
581.019	0.05784153
581.221	0.05811523
581.422	0.05836856
581.623	0.05863376
581.824	0.05885961
582.025	0.05910713
582.226	0.05938415
582.428	0.05968191
582.629	0.05993197
582.83	0.06021393
583.031	0.06042628
583.232	0.06070494
583.433	0.06098765
583.634	0.06120896
583.835	0.06144805
584.036	0.06165378
584.237	0.06185002
584.438	0.0621222
584.639	0.06235355
584.84	0.06261194
585.041	0.06288972
585.242	0.06314604
585.442	0.06338982
585.643	0.06364037
585.844	0.06388502
586.045	0.06416356
586.246	0.06435241
586.447	0.06457316
586.647	0.0648068
586.848	0.06510768
587.049	0.06541916
587.25	0.0656637
587.45	0.06588887
587.651	0.06616476
587.852	0.06643757
588.053	0.06669972
588.253	0.06695564
588.454	0.06713776
588.655	0.06739438
588.855	0.06762747
589.056	0.06790866
589.256	0.06814454
589.457	0.06836406
589.658	0.06863345
589.858	0.06891808
590.059	0.06919929
590.259	0.06950325
590.46	0.06978208
590.66	0.070053
590.861	0.07032963
591.061	0.07055655
591.262	0.07083884
591.462	0.07111259
591.662	0.07135234
591.863	0.07154578
592.063	0.07180585
592.264	0.07202031
592.464	0.07223384
592.664	0.07242846
592.865	0.07265883
593.065	0.07285163
593.265	0.0731146
593.465	0.07337542
593.666	0.07366678
593.866	0.07395304
594.066	0.0742602
594.266	0.07445676
594.467	0.07476146
594.667	0.07495377
594.867	0.07520367
595.067	0.07545998
595.267	0.07569038
595.467	0.07592674
595.668	0.07623384
595.868	0.07651656
596.068	0.07683564
596.268	0.07707056
596.468	0.07730611
596.668	0.07754349
596.868	0.07782156
597.068	0.07801901
597.268	0.07824301
597.468	0.07847639
597.668	0.07874943
597.868	0.07900627
598.068	0.07928343
598.268	0.07946677
598.467	0.07975873
598.667	0.07995409
598.867	0.08021422
599.067	0.08043241
599.267	0.08067052
599.467	0.08085618
599.667	0.0811132
599.866	0.0813773
600.066	0.08166209
600.266	0.08191494
600.466	0.08215528
600.665	0.08237335
600.865	0.08268915
601.065	0.08293635
601.264	0.08312492
601.464	0.08336597
601.664	0.08358436
601.863	0.083833
602.063	0.08408077
602.263	0.08425329
602.462	0.08452925
602.662	0.08478627
602.861	0.08504152
603.061	0.08524652
603.26	0.08549668
603.46	0.08568553
603.659	0.08593691
603.859	0.08611249
604.058	0.08631096
604.258	0.08654178
604.457	0.08686128
604.657	0.08706168
604.856	0.08728298
605.056	0.08756459
605.255	0.08778269
605.454	0.08804823
605.654	0.08824284
605.853	0.08840422
606.052	0.08861298
606.252	0.08888265
606.451	0.08905037
606.65	0.08928993
606.849	0.08947788
607.049	0.089718
607.248	0.08995813
607.447	0.0902038
607.646	0.09044283
607.845	0.09075353
608.045	0.09096598
608.244	0.09124537
608.443	0.09145001
608.642	0.09167916
608.841	0.09190264
609.04	0.09207859
609.239	0.09222169
609.438	0.09236753
609.637	0.09256203
609.836	0.09277139
610.035	0.09294757
610.234	0.09314213
610.433	0.09335444
610.632	0.09358014
610.831	0.09390787
611.03	0.09409993
611.229	0.09437293
611.428	0.09464716
611.627	0.09487046
611.826	0.09513815
612.025	0.09542262
612.224	0.09560856
612.422	0.0958642
612.621	0.09605355
612.82	0.09620783
613.019	0.09642115
613.218	0.0966513
613.416	0.09681316
613.615	0.0970486
613.814	0.09725054
614.012	0.09745453
614.211	0.09762724
614.41	0.09787777
614.608	0.098077
614.807	0.09827541
615.006	0.09849516
615.204	0.09869415
615.403	0.09890724
615.602	0.09921945
615.8	0.099459
615.999	0.09960102
616.197	0.09976464
616.396	0.09998792
616.594	0.10014466
616.793	0.10040554
616.991	0.10058443
617.19	0.10069039
617.388	0.10098101
617.586	0.10124189
617.785	0.1013905
617.983	0.10166262
618.182	0.1017973
618.38	0.10196791
618.578	0.10221437
618.777	0.10237524
618.975	0.10256427
619.173	0.10283217
619.372	0.10303691
619.57	0.10322777
619.768	0.10343925
619.966	0.10366407
620.165	0.10385621
620.363	0.10406069
620.561	0.10415891
620.759	0.10434878
620.957	0.10457103
621.155	0.10485199
621.354	0.10503161
621.552	0.10530983
621.75	0.10547374
621.948	0.10572695
622.146	0.10593257
622.344	0.10613326
622.542	0.10628031
622.74	0.10647922
622.938	0.10659049
623.136	0.10683026
623.334	0.10704353
623.532	0.10713841
623.73	0.10727734
623.928	0.10747988
624.126	0.10765753
624.324	0.10792011
624.522	0.10803529
624.719	0.10815285
624.917	0.10838061
625.115	0.10854176
625.313	0.10870606
625.511	0.1089116
625.708	0.10898557
625.906	0.10919298
626.104	0.1093718
626.302	0.10958769
626.499	0.1097686
626.697	0.10993036
626.895	0.11003563
627.093	0.11024698
627.29	0.1104415
627.488	0.11066957
627.686	0.11084532
627.883	0.11102928
628.081	0.11110561
628.278	0.11140701
628.476	0.11157238
628.673	0.1117954
628.871	0.11195481
629.068	0.11213123
629.266	0.11234556
629.463	0.11257575
629.661	0.11268149
629.858	0.11285184
630.056	0.11299201
630.253	0.11315491
630.451	0.11332291
630.648	0.11349085
630.845	0.11366137
631.043	0.11383526
631.24	0.11402987
631.438	0.11420467
631.635	0.11439421
631.832	0.11447126
632.029	0.11462415
632.227	0.11481718
632.424	0.11499078
632.621	0.11509957
632.818	0.11522269
633.016	0.11539114
633.213	0.11556943
633.41	0.11578393
633.607	0.11593919
633.804	0.11607796
634.001	0.11625692
634.199	0.11647409
634.396	0.11666186
634.593	0.11683391
634.79	0.11699966
634.987	0.11718968
635.184	0.11739089
635.381	0.11760893
635.578	0.11779625
635.775	0.11791664
635.972	0.11807757
636.169	0.11819905
636.366	0.11829186
636.563	0.11838597
636.76	0.1184527
636.957	0.11856646
637.153	0.1186876
637.35	0.11891676
637.547	0.11908509
637.744	0.11930092
637.941	0.11948668
638.138	0.11971415
638.334	0.11984757
638.531	0.12000702
638.728	0.12010303
638.925	0.12029295
639.121	0.12040642
639.318	0.12054546
639.515	0.12065278
639.711	0.12082827
639.908	0.1209316
640.105	0.12110978
640.301	0.12118032
640.498	0.12131345
640.695	0.12151306
640.891	0.12167433
641.088	0.12185985
641.284	0.12210409
641.481	0.12223789
641.677	0.12242343
641.874	0.12259377
642.07	0.1227479
642.267	0.12295037
642.463	0.12304905
642.66	0.12317495
642.856	0.12331657
643.053	0.12342356
643.249	0.12357702
643.445	0.12367754
643.642	0.12379055
643.838	0.12395906
644.034	0.12411338
644.231	0.12426194
644.427	0.12444375
644.623	0.12456893
644.82	0.12474391
645.016	0.12484261
645.212	0.12489066
645.408	0.1250618
645.604	0.12530105
645.801	0.12549523
645.997	0.12564798
646.193	0.12574582
646.389	0.12600762
646.585	0.12623291
646.781	0.12638011
646.977	0.12647129
647.173	0.12652218
647.37	0.12660451
647.566	0.12678731
647.762	0.1268925
647.958	0.12705887
648.154	0.12716078
648.35	0.12724946
648.546	0.12740248
648.742	0.12765091
648.937	0.12766696
649.133	0.12778023
649.329	0.12796599
649.525	0.12813097
649.721	0.12832298
649.917	0.12856678
650.113	0.12865162
650.309	0.12889744
650.504	0.12897001
650.7	0.12902412
650.896	0.12917608
651.092	0.1292655
651.287	0.12932746
651.483	0.1295357
651.679	0.12966238
651.875	0.12991388
652.07	0.13008275
652.266	0.13021394
652.462	0.13037495
652.657	0.13050617
652.853	0.13058018
653.048	0.13072234
653.244	0.1307324
653.44	0.13084751
653.635	0.13088703
653.831	0.1310476
654.026	0.13124458
654.222	0.13139163
654.417	0.13161182
654.613	0.13179925
654.808	0.1318881
655.004	0.1321094
655.199	0.13222622
655.394	0.13232504
655.59	0.13247453
655.785	0.13251535
655.98	0.13271146
656.176	0.13286573
656.371	0.13307668
656.566	0.13325841
656.762	0.13338471
656.957	0.13358109
657.152	0.13374426
657.348	0.13389031
657.543	0.13410374
657.738	0.13421175
657.933	0.13427146
658.128	0.13440493
658.324	0.13445246
658.519	0.13459296
658.714	0.134735
658.909	0.1347994
659.104	0.13489907
659.299	0.13507204
659.494	0.13520875
659.689	0.13541282
659.884	0.13553096
660.079	0.13561211
660.274	0.13575548
660.469	0.13590152
660.664	0.1360832
660.859	0.13619345
661.054	0.13633959
661.249	0.13649034
661.444	0.13665389
661.639	0.13677709
661.834	0.13688818
662.029	0.13704945
662.224	0.1372106
662.418	0.13730931
662.613	0.13744387
662.808	0.137562
663.003	0.13769792
663.198	0.13786905
663.392	0.13796382
663.587	0.13819069
663.782	0.1383817
663.977	0.13852249
664.171	0.1386765
664.366	0.13889115
664.561	0.13906546
664.755	0.13929659
664.95	0.13940727
665.144	0.13953131
665.339	0.13975356
665.534	0.1399452
665.728	0.14012096
665.923	0.14025565
666.117	0.14034885
666.312	0.14048002
666.506	0.14062692
666.701	0.14076187
666.895	0.14088891
667.09	0.14097074
667.284	0.14116896
667.479	0.14132386
667.673	0.14144557
667.867	0.14162315
668.062	0.14172481
668.256	0.14187401
668.45	0.14209729
668.645	0.14218657
668.839	0.14233161
669.033	0.14250694
669.228	0.1426612
669.422	0.14284048
669.616	0.14299496
669.81	0.14318089
670.004	0.14329136
670.199	0.14342953
670.393	0.14356577
670.587	0.14371217
670.781	0.14383903
670.975	0.14397737
671.169	0.14397371
671.363	0.14411949
671.558	0.14424936
671.752	0.14442854
671.946	0.14456244
672.14	0.14471626
672.334	0.14483385
672.528	0.14513467
672.722	0.14528757
672.916	0.14547923
673.11	0.14560462
673.304	0.14582595
673.497	0.14599311
673.691	0.14624346
673.885	0.14636206
674.079	0.14661453
674.273	0.14672887
674.467	0.14692782
674.661	0.14704513
674.854	0.14721964
675.048	0.14736891
675.242	0.14751688
675.436	0.14765898
675.629	0.14786126
675.823	0.14798204
676.017	0.14817925
676.211	0.1483105
676.404	0.14843835
676.598	0.1485992
676.792	0.14877636
676.985	0.14896938
677.179	0.14914852
677.372	0.14927793
677.566	0.14956311
677.76	0.14978218
677.953	0.1499619
678.147	0.15008917
678.34	0.15028811
678.534	0.15044486
678.727	0.15066203
678.921	0.15079949
679.114	0.15090718
679.307	0.15113187
679.501	0.15141107
679.694	0.1515212
679.888	0.15172163
680.081	0.15186951
680.274	0.15199404
680.468	0.15217296
680.661	0.15228296
680.854	0.1524266
681.048	0.1526285
681.241	0.1528255
681.434	0.15296874
681.627	0.15313526
681.821	0.1533439
682.014	0.1535695
682.207	0.15368118
682.4	0.15381704
682.593	0.15397776
682.786	0.15417083
682.98	0.15437669
683.173	0.15460718
683.366	0.15477259
683.559	0.15491768
683.752	0.15513526
683.945	0.15536904
684.138	0.15556577
684.331	0.15572675
684.524	0.15594605
684.717	0.15610163
684.91	0.15640576
685.103	0.15661331
685.296	0.15675942
685.489	0.1569652
685.682	0.15710839
685.874	0.15727964
686.067	0.15750159
686.26	0.1576552
686.453	0.15780349
686.646	0.15799463
686.839	0.15820963
687.031	0.1585078
687.224	0.1586078
687.417	0.15883165
687.61	0.15898985
687.802	0.15917321
687.995	0.15937615
688.188	0.15951057
688.38	0.15963923
688.573	0.15988434
688.766	0.16005194
688.958	0.16024287
689.151	0.16042201
689.343	0.16062891
689.536	0.16084467
689.729	0.16102955
689.921	0.16122528
690.114	0.16136233
690.306	0.16159264
690.499	0.16181618
690.691	0.16200195
690.884	0.16220796
691.076	0.16248742
691.268	0.16265804
691.461	0.16279982
691.653	0.16293872
691.846	0.16312788
692.038	0.1633381
692.23	0.16347894
692.423	0.16363426
692.615	0.16385147
692.807	0.1641298
692.999	0.16440198
693.192	0.16463874
693.384	0.16482045
693.576	0.16501423
693.768	0.1652146
693.961	0.16535684
694.153	0.16553363
694.345	0.16563347
694.537	0.16578572
694.729	0.16593533
694.921	0.16608514
695.113	0.16626731
695.305	0.16644099
695.498	0.16658763
695.69	0.1668227
695.882	0.16696777
696.074	0.16718858
696.266	0.16743537
696.458	0.16751685
696.65	0.16770512
696.842	0.16794106
697.033	0.16811345
697.225	0.16831802
697.417	0.16856311
697.609	0.16876525
697.801	0.16905687
697.993	0.1692904
698.185	0.16950336
698.376	0.16973973
698.568	0.16992938
698.76	0.17009939
698.952	0.17033902
699.144	0.17055117
699.335	0.17074003
699.527	0.17091067
699.719	0.17113003
699.91	0.17143303
700.102	0.17165311
700.294	0.17185859
700.485	0.17209939
700.677	0.17243368
700.869	0.17274022
701.06	0.17298757
701.252	0.17318642
701.443	0.17336404
701.635	0.17352595
701.826	0.17371382
702.018	0.17380366
702.209	0.17395255
702.401	0.17403393
702.592	0.17419077
702.784	0.17440873
702.975	0.17461058
703.166	0.17480801
703.358	0.17499887
703.549	0.17522902
703.741	0.17549718
703.932	0.17568902
704.123	0.17592224
704.315	0.17617396
704.506	0.17645869
704.697	0.17671791
704.888	0.17690697
705.08	0.17709422
705.271	0.17737405
705.462	0.17750914
705.653	0.17768804
705.844	0.17778481
706.035	0.17800719
706.227	0.17823246
706.418	0.17845232
706.609	0.17862343
706.8	0.17892083
706.991	0.17915966
707.182	0.17939397
707.373	0.17955996
707.564	0.17976417
707.755	0.17994201
707.946	0.18017845
708.137	0.1803488
708.328	0.18053253
708.519	0.18077182
708.71	0.18103492
708.901	0.18121087
709.092	0.18139985
709.283	0.18155399
709.473	0.18175914
709.664	0.18197506
709.855	0.18216572
710.046	0.18234733
710.237	0.18256834
710.427	0.18283636
710.618	0.18310972
710.809	0.18331119
711	0.18350998
711.19	0.18363882
711.381	0.18384343
711.572	0.18404241
711.762	0.18425926
711.953	0.18439605
712.144	0.18456774
712.334	0.18474803
712.525	0.18503288
712.715	0.18524583
712.906	0.18543805
713.097	0.18558685
713.287	0.18577659
713.478	0.18596804
713.668	0.18623351
713.859	0.18647935
714.049	0.18661825
714.239	0.18684829
714.43	0.1871733
714.62	0.18740717
714.811	0.18766295
715.001	0.18786598
715.191	0.18799954
715.382	0.18824459
715.572	0.18847535
715.762	0.1885964
715.953	0.18889945
716.143	0.18912157
716.333	0.18928247
716.523	0.1894975
716.714	0.18973618
716.904	0.18991969
717.094	0.19015532
717.284	0.1902698
717.474	0.19041388
717.664	0.19065395
717.855	0.19086284
718.045	0.19101268
718.235	0.19119517
718.425	0.19143394
718.615	0.19166437
718.805	0.19194022
718.995	0.19211664
719.185	0.19237893
719.375	0.19263755
719.565	0.1929147
719.755	0.19310301
719.945	0.19327511
720.135	0.19347779
720.325	0.19372673
720.515	0.19399221
720.704	0.19428969
720.894	0.19453394
721.084	0.19474184
721.274	0.19503673
721.464	0.19527908
721.654	0.19551692
721.843	0.19562969
722.033	0.19578562
722.223	0.19591776
722.413	0.19618562
722.602	0.1964112
722.792	0.19666018
722.982	0.19691031
723.171	0.19712039
723.361	0.19731576
723.55	0.19760771
723.74	0.19780824
723.93	0.1979617
724.119	0.19813906
724.309	0.19824874
724.498	0.19844458
724.688	0.19870429
724.877	0.19883343
725.067	0.19894499
725.256	0.19914792
725.446	0.19927495
725.635	0.19941839
725.825	0.1996251
726.014	0.19973748
726.203	0.19994463
726.393	0.20013099
726.582	0.2002943
726.771	0.20048987
726.961	0.20066515
727.15	0.2007562
727.339	0.20086557
727.529	0.20096927
727.718	0.20107227
727.907	0.20118484
728.096	0.2013152
728.286	0.20155448
728.475	0.20177423
728.664	0.20204624
728.853	0.20226983
729.042	0.2024377
729.231	0.2026546
729.42	0.20280335
729.609	0.20293692
729.799	0.20303134
729.988	0.20310741
730.177	0.20323903
730.366	0.20345763
730.555	0.20354842
730.744	0.20371794
730.933	0.20379733
731.122	0.20401389
731.31	0.20414366
731.499	0.20425073
731.688	0.20437618
731.877	0.20448043
732.066	0.20465093
732.255	0.20480253
732.444	0.20492907
732.632	0.20509541
732.821	0.20521358
733.01	0.20537967
733.199	0.20553075
733.388	0.20566765
733.576	0.20584057
733.765	0.2059572
733.954	0.20609766
734.142	0.2062501
734.331	0.20637821
734.52	0.20658907
734.708	0.20673161
734.897	0.20687612
735.086	0.20703697
735.274	0.20712799
735.463	0.20724888
735.651	0.20741872
735.84	0.20758173
736.028	0.20769075
736.217	0.20783769
736.405	0.2079841
736.594	0.20815592
736.782	0.20829551
736.971	0.20838554
737.159	0.20846518
737.347	0.20857454
737.536	0.20862533
737.724	0.20874427
737.912	0.20890955
738.101	0.20903118
738.289	0.2091211
738.477	0.20922837
738.666	0.20933804
738.854	0.2095261
739.042	0.20964448
739.23	0.20970182
739.418	0.20987371
739.607	0.21004055
739.795	0.21017139
739.983	0.21037713
740.171	0.21047698
740.359	0.21061717
740.547	0.21073283
740.735	0.21081651
740.923	0.2109478
741.112	0.21111148
741.3	0.21117306
741.488	0.21131387
741.676	0.21146203
741.864	0.21159211
742.052	0.211751
742.239	0.2118694
742.427	0.21192952
742.615	0.2120357
742.803	0.21210953
742.991	0.2121725
743.179	0.2123302
743.367	0.21244121
743.555	0.21254331
743.742	0.21269418
743.93	0.21285664
744.118	0.21298658
744.306	0.2131064
744.494	0.213176
744.681	0.21329981
744.869	0.21340573
745.057	0.21357752
745.244	0.21371394
745.432	0.21388003
745.62	0.21399332
745.807	0.2140936
745.995	0.21413826
746.182	0.21418046
746.37	0.21422551
746.558	0.21418806
746.745	0.21419144
746.933	0.21429278
747.12	0.21438062
747.308	0.21450447
747.495	0.21459328
747.683	0.21463458
747.87	0.21478978
748.057	0.21492731
748.245	0.2150043
748.432	0.21503707
748.62	0.21510483
748.807	0.21518197
748.994	0.21526303
749.182	0.21533197
749.369	0.21537045
749.556	0.21542183
749.743	0.21551612
749.931	0.2155447
750.118	0.21563443
750.305	0.21569134
750.492	0.21575958
750.68	0.21591892
750.867	0.2159614
751.054	0.21611308
751.241	0.21614397
751.428	0.21618241
751.615	0.21628841
751.802	0.21634994
751.989	0.2163024
752.176	0.21638817
752.363	0.21639981
752.55	0.21653775
752.737	0.21665216
752.924	0.21665068
753.111	0.21676125
753.298	0.21691774
753.485	0.21698873
753.672	0.21699507
753.859	0.21707337
754.046	0.21715332
754.233	0.21722482
754.42	0.21727554
754.606	0.21724045
754.793	0.21725818
754.98	0.21738375
755.167	0.21733724
755.353	0.21732892
755.54	0.21740062
755.727	0.21741882
755.914	0.21747342
756.1	0.21748814
756.287	0.2175173
756.474	0.21760958
756.66	0.21762029
756.847	0.21763218
757.033	0.21757073
757.22	0.21761589
757.407	0.21766017
757.593	0.21765616
757.78	0.2176871
757.966	0.21770562
758.153	0.21771689
758.339	0.21778055
758.526	0.21775925
758.712	0.21773813
758.898	0.21775557
759.085	0.21771607
759.271	0.21778949
759.458	0.21784815
759.644	0.21787811
759.83	0.21799823
760.017	0.21813655
760.203	0.21819114
760.389	0.21833265
760.576	0.2183233
760.762	0.21831246
760.948	0.21834577
761.134	0.21829381
761.32	0.21824655
761.507	0.21823461
761.693	0.21820184
761.879	0.21826343
762.065	0.21830066
762.251	0.21829356
762.437	0.21833203
762.623	0.21833555
762.809	0.21835326
762.995	0.21833633
763.181	0.21824763
763.367	0.21824716
763.553	0.21825006
763.739	0.21823081
763.925	0.21824277
764.111	0.21824991
764.297	0.21826569
764.483	0.21823021
764.669	0.21810954
764.855	0.21808916
765.041	0.21808585
765.227	0.21803496
765.412	0.21801492
765.598	0.21799214
765.784	0.2180475
765.97	0.21818442
766.156	0.21817043
766.341	0.21820028
766.527	0.2182031
766.713	0.21812032
766.898	0.21806539
767.084	0.21804724
767.27	0.21797938
767.455	0.21795367
767.641	0.21789091
767.827	0.21788241
768.012	0.21789429
768.198	0.21791349
768.383	0.21792315
768.569	0.21794933
768.754	0.2179112
768.94	0.21782202
769.125	0.21774325
769.311	0.21774945
769.496	0.21771764
769.682	0.21768792
769.867	0.21762527
770.052	0.21766349
770.238	0.21765045
770.423	0.21770895
770.608	0.21767075
770.794	0.21762963
770.979	0.21750726
771.164	0.21743438
771.35	0.21735568
771.535	0.21734684
771.72	0.21725146
771.905	0.2172298
772.09	0.21712517
772.276	0.21713722
772.461	0.21706445
772.646	0.21700364
772.831	0.21686506
773.016	0.21677352
773.201	0.21658855
773.386	0.21660231
773.571	0.21650865
773.756	0.21643466
773.941	0.21637259
774.126	0.21638213
774.311	0.21635513
774.496	0.21637563
774.681	0.21626954
774.866	0.21621351
775.051	0.21614332
775.236	0.21607587
775.421	0.21596361
775.606	0.21584242
775.791	0.21569777
775.976	0.21560559
776.16	0.2154947
776.345	0.21539391
776.53	0.21531934
776.715	0.21524552
776.899	0.21514921
777.084	0.21511712
777.269	0.21502326
777.454	0.21499818
777.638	0.21496391
777.823	0.21480749
778.008	0.21464753
778.192	0.21458442
778.377	0.21440646
778.561	0.21432746
778.746	0.21415683
778.931	0.21405425
779.115	0.21400429
779.3	0.21400926
779.484	0.21388129
779.669	0.21378599
779.853	0.21358463
780.037	0.21347893
780.222	0.21331896
780.406	0.21317983
780.591	0.2130636
780.775	0.21300029
780.959	0.2129919
781.144	0.2129383
781.328	0.21289008
781.512	0.21278114
781.697	0.212628
781.881	0.21244108
782.065	0.21229674
782.249	0.21211158
782.434	0.21199438
782.618	0.2118147
782.802	0.21171765
782.986	0.2116538
783.17	0.21160463
783.354	0.21148447
783.539	0.21135162
783.723	0.21121024
783.907	0.21110858
784.091	0.21096423
784.275	0.21083965
784.459	0.21067473
784.643	0.21055734
784.827	0.21051843
785.011	0.21045648
785.195	0.21040308
785.379	0.21036334
785.563	0.21022479
785.747	0.2100949
785.93	0.21004538
786.114	0.20988678
786.298	0.20974066
786.482	0.20953193
786.666	0.20935701
786.85	0.20925969
787.033	0.20912758
787.217	0.20893066
787.401	0.20871195
787.585	0.20852363
787.768	0.20839067
787.952	0.20812112
788.136	0.20782323
788.319	0.20763428
788.503	0.20739471
788.687	0.20720384
788.87	0.20703807
789.054	0.20684125
789.237	0.20674957
789.421	0.20668268
789.605	0.20656004
789.788	0.20647513
789.972	0.20635293
790.155	0.20611205
790.338	0.20585797
790.522	0.20565864
790.705	0.20542385
790.889	0.20515598
791.072	0.20489027
791.256	0.20472065
791.439	0.20466568
791.622	0.20455954
791.806	0.2044353
791.989	0.20426948
792.172	0.20411621
792.355	0.20395884
792.539	0.2038174
792.722	0.20357543
792.905	0.20342196
793.088	0.20318672
793.271	0.20309639
793.455	0.20295817
793.638	0.20279584
793.821	0.20263321
794.004	0.20249642
794.187	0.20234248
794.37	0.20218512
794.553	0.20192806
794.736	0.2016942
794.919	0.201505
795.102	0.20129098
795.285	0.20106153
795.468	0.20083001
795.651	0.20068441
795.834	0.20056134
796.017	0.20045579
796.2	0.20020922
796.383	0.19997585
796.566	0.199774
796.749	0.19959081
796.931	0.19933334
797.114	0.19909382
797.297	0.19882073
797.48	0.19868169
797.663	0.19854644
797.845	0.19842415
798.028	0.19819373
798.211	0.19800185
798.393	0.19784081
798.576	0.1977029
798.759	0.19743416
798.941	0.19718975
799.124	0.19690814
799.307	0.19673347
799.489	0.1965472
799.672	0.19626868
799.854	0.19599835
800.037	0.19580593
800.219	0.19559472
800.402	0.19547625
800.584	0.19527706
800.767	0.19507998
800.949	0.19491101
801.132	0.19478285
801.314	0.19455946
801.496	0.19430326
801.679	0.19396623
801.861	0.1937192
802.043	0.19335156
802.226	0.19304262
802.408	0.19272575
802.59	0.19256914
802.772	0.19240609
802.955	0.19224
803.137	0.19197063
803.319	0.19189651
803.501	0.19172989
803.684	0.19152595
803.866	0.19123213
804.048	0.19096255
804.23	0.19073198
804.412	0.19058487
804.594	0.19032517
804.776	0.19015166
804.958	0.18989971
805.14	0.18967463
805.322	0.18944919
805.504	0.18921851
805.686	0.18890942
805.868	0.18864793
806.05	0.18836482
806.232	0.18817609
806.414	0.18799039
806.596	0.18780028
806.778	0.1875582
806.96	0.18737354
807.141	0.18714975
807.323	0.18689022
807.505	0.18664139
807.687	0.18645034
807.869	0.18614739
808.05	0.18589278
808.232	0.18559526
808.414	0.18528403
808.595	0.18505544
808.777	0.18479821
808.959	0.18446946
809.14	0.18428646
809.322	0.18407131
809.504	0.18387894
809.685	0.18367483
809.867	0.18340047
810.048	0.18315495
810.23	0.18296145
810.411	0.18271252
810.593	0.18252755
810.774	0.1822548
810.956	0.18201711
811.137	0.1817522
811.319	0.18157303
811.5	0.18133258
811.681	0.18109529
811.863	0.18075351
812.044	0.18050425
812.225	0.1803368
812.407	0.18011641
812.588	0.17976743
812.769	0.17943567
812.951	0.17909437
813.132	0.17877504
813.313	0.17852954
813.494	0.1781231
813.675	0.17781226
813.857	0.17750588
814.038	0.17729535
814.219	0.17706174
814.4	0.17686323
814.581	0.17667572
814.762	0.17650912
814.943	0.17631027
815.124	0.17603539
815.305	0.17574361
815.486	0.17548538
815.667	0.1751693
815.848	0.17476161
816.029	0.1743986
816.21	0.17412037
816.391	0.17396198
816.572	0.17373527
816.753	0.17349714
816.934	0.17327762
817.115	0.17311463
817.295	0.17295281
817.476	0.17267081
817.657	0.17236789
817.838	0.17201413
818.019	0.17169239
818.199	0.1714484
818.38	0.17113884
818.561	0.17082565
818.741	0.17065211
818.922	0.17043007
819.103	0.17025804
819.283	0.17003787
819.464	0.16973289
819.645	0.16947185
819.825	0.16919588
820.006	0.1688056
820.186	0.16847541
820.367	0.16815377
820.547	0.16776172
820.728	0.16750919
820.908	0.16724519
821.089	0.16703123
821.269	0.16682198
821.45	0.16658541
821.63	0.16623287
821.81	0.16599645
821.991	0.16563923
822.171	0.16533577
822.351	0.16505131
822.532	0.16465635
822.712	0.16438807
822.892	0.16421246
823.072	0.16401446
823.253	0.16385988
823.433	0.16360806
823.613	0.16331495
823.793	0.16313078
823.973	0.16283463
824.154	0.16245916
824.334	0.1620948
824.514	0.16173713
824.694	0.1613571
824.874	0.1609523
825.054	0.16061884
825.234	0.16028579
825.414	0.16001388
825.594	0.15973889
825.774	0.15947195
825.954	0.15928259
826.134	0.15903656
826.314	0.15880676
826.494	0.15853331
826.674	0.15816922
826.854	0.15787469
827.033	0.15748236
827.213	0.15718137
827.393	0.15683763
827.573	0.15649367
827.753	0.15619036
827.932	0.15603851
828.112	0.15575723
828.292	0.15556764
828.472	0.15519631
828.651	0.15500912
828.831	0.15472142
829.011	0.15450549
829.19	0.15417424
829.37	0.15383876
829.549	0.15349636
829.729	0.15316154
829.909	0.15284
830.088	0.15255587
830.268	0.15215928
830.447	0.1518882
830.627	0.15165785
830.806	0.15133549
830.986	0.15111823
831.165	0.15081969
831.344	0.15046156
831.524	0.1501848
831.703	0.14980486
831.883	0.14951739
832.062	0.14930207
832.241	0.14900487
832.421	0.14878724
832.6	0.14854908
832.779	0.14826356
832.958	0.14806824
833.138	0.14772337
833.317	0.14744271
833.496	0.14714817
833.675	0.14678187
833.854	0.14658817
834.034	0.14628962
834.213	0.14587768
834.392	0.14553461
834.571	0.14512081
834.75	0.14473431
834.929	0.1443585
835.108	0.14383326
835.287	0.14345841
835.466	0.14319093
835.645	0.14285766
835.824	0.14255146
836.003	0.14232801
836.182	0.14209388
836.361	0.1418891
836.54	0.14158004
836.719	0.14124959
836.897	0.14093895
837.076	0.14059942
837.255	0.14024992
837.434	0.13993963
837.613	0.13968706
837.791	0.13944748
837.97	0.13917378
838.149	0.13886593
838.328	0.13861202
838.506	0.13830869
838.685	0.13798235
838.864	0.13760421
839.042	0.13724856
839.221	0.13697347
839.4	0.13676122
839.578	0.13646908
839.757	0.13612474
839.935	0.13578653
840.114	0.13550091
840.292	0.13526835
840.471	0.1349294
840.649	0.13451711
840.828	0.13423957
841.006	0.13399618
841.185	0.13373317
841.363	0.1334795
841.541	0.13315128
841.72	0.13290671
841.898	0.13273804
842.076	0.13239091
842.255	0.13206542
842.433	0.13171826
842.611	0.13131925
842.789	0.13101568
842.968	0.13072426
843.146	0.13039923
843.324	0.13011946
843.502	0.12985887
843.68	0.12961018
843.859	0.12939711
844.037	0.12909464
844.215	0.12879194
844.393	0.12844319
844.571	0.1281762
844.749	0.12789712
844.927	0.12758557
845.105	0.12721623
845.283	0.12688464
845.461	0.12650042
845.639	0.1262158
845.817	0.12591061
845.995	0.12552007
846.173	0.12522718
846.351	0.12498026
846.529	0.12470441
846.706	0.12448473
846.884	0.12423003
847.062	0.12396223
847.24	0.12375724
847.418	0.12348107
847.595	0.12316597
847.773	0.1228799
847.951	0.12244784
848.129	0.12213757
848.306	0.12188438
848.484	0.12155102
848.662	0.12131459
848.839	0.12106295
849.017	0.12076424
849.194	0.12058812
849.372	0.12026954
849.549	0.11989
849.727	0.11964617
849.905	0.11931672
850.082	0.11899193
850.26	0.11871251
850.437	0.11830208
850.614	0.11805179
850.792	0.11778615
850.969	0.11746389
851.147	0.11717378
851.324	0.11690531
851.501	0.11666193
851.679	0.11640383
851.856	0.11605446
852.033	0.11566549
852.211	0.11532362
852.388	0.11493734
852.565	0.11463066
852.742	0.11422289
852.92	0.11392189
853.097	0.11361327
853.274	0.11335233
853.451	0.11308428
853.628	0.11279351
853.805	0.11247666
853.982	0.11224654
854.159	0.11201472
854.336	0.11173497
854.514	0.11149739
854.691	0.11119107
854.868	0.1108818
855.045	0.11055488
855.221	0.11025329
855.398	0.10993419
855.575	0.10962709
855.752	0.10933111
855.929	0.10911818
856.106	0.10893218
856.283	0.10877491
856.46	0.10851471
856.637	0.10835877
856.813	0.10811194
856.99	0.1078191
857.167	0.1074176
857.344	0.10705765
857.52	0.10664668
857.697	0.10626259
857.874	0.10591218
858.05	0.1056752
858.227	0.10536921
858.404	0.10518931
858.58	0.10493554
858.757	0.10473079
858.933	0.10459142
859.11	0.10436035
859.287	0.10403048
859.463	0.10372498
859.64	0.10342102
859.816	0.10310351
859.993	0.1027212
860.169	0.10230831
860.345	0.1019078
860.522	0.10155977
860.698	0.10129548
860.875	0.10098544
861.051	0.10079273
861.227	0.10065767
861.404	0.10050328
861.58	0.10037139
861.756	0.10008442
861.932	0.09983474
862.109	0.09953693
862.285	0.09925129
862.461	0.098937
862.637	0.09859909
862.813	0.09816664
862.99	0.09791224
863.166	0.09758471
863.342	0.09742117
863.518	0.0971405
863.694	0.09687297
863.87	0.09665072
864.046	0.0964745
864.222	0.09623631
864.398	0.09597264
864.574	0.09555646
864.75	0.09523773
864.926	0.0947947
865.102	0.09450792
865.278	0.09410895
865.454	0.09381143
865.63	0.09357507
865.805	0.09332347
865.981	0.09308977
866.157	0.09293453
866.333	0.09269694
866.509	0.09252348
866.684	0.09244687
866.86	0.09226555
867.036	0.09209078
867.212	0.09178275
867.387	0.09156731
867.563	0.09134225
867.739	0.09106417
867.914	0.09066557
868.09	0.09029828
868.265	0.08998749
868.441	0.08981171
868.617	0.08956635
868.792	0.08922842
868.968	0.08893331
869.143	0.08871088
869.319	0.08845019
869.494	0.08819561
869.67	0.08787563
869.845	0.08761932
870.02	0.0873181
870.196	0.08707384
870.371	0.08678168
870.546	0.08649609
870.722	0.08623172
870.897	0.0859435
871.072	0.08561328
871.248	0.08539314
871.423	0.08516795
871.598	0.08492041
871.773	0.08483708
871.949	0.08464332
872.124	0.08449832
872.299	0.08427466
872.474	0.08392011
872.649	0.08356988
872.824	0.08330035
872.999	0.08286558
873.174	0.08249485
873.349	0.08218753
873.524	0.08196154
873.699	0.081809
873.874	0.08166717
874.049	0.08146438
874.224	0.08134252
874.399	0.08128462
874.574	0.08110166
874.749	0.08089938
874.924	0.08071877
875.099	0.08042183
875.274	0.08015156
875.449	0.07979989
875.623	0.07938684
875.798	0.07897813
875.973	0.07854481
876.148	0.07813075
876.322	0.07782176
876.497	0.07746615
876.672	0.07716953
876.846	0.0770176
877.021	0.07694597
877.196	0.07684039
877.37	0.07667838
877.545	0.07668798
877.72	0.07649641
877.894	0.07642818
878.069	0.07624754
878.243	0.07580897
878.418	0.0755647
878.592	0.07529434
878.767	0.07483506
878.941	0.07463185
879.116	0.07423312
879.29	0.07390755
879.464	0.07377716
879.639	0.07359622
879.813	0.07351437
879.987	0.0734234
880.162	0.07315656
880.336	0.07300422
880.51	0.07271363
880.685	0.07252143
880.859	0.07228161
881.033	0.07187712
881.207	0.07155079
881.381	0.07137017
881.556	0.07106954
881.73	0.07082332
881.904	0.07052263
882.078	0.07025236
882.252	0.07004093
882.426	0.0698009
882.6	0.06966569
882.774	0.06956107
882.948	0.06949406
883.122	0.0693455
883.296	0.06909363
883.47	0.06899234
883.644	0.06884426
883.818	0.06846381
883.992	0.06809717
884.166	0.06783981
884.34	0.06751619
884.514	0.06727852
884.687	0.06692779
884.861	0.06662318
885.035	0.06650359
885.209	0.06640484
885.382	0.06623441
885.556	0.06615526
885.73	0.06610781
885.904	0.06602333
886.077	0.06579232
886.251	0.06550694
886.425	0.06531124
886.598	0.06494381
886.772	0.06465374
886.945	0.06426424
887.119	0.06395076
887.292	0.06374454
887.466	0.06349931
887.64	0.063299
887.813	0.06326822
887.986	0.06313338
888.16	0.06310164
888.333	0.0629929
888.507	0.06293197
888.68	0.06282289
888.854	0.0625153
889.027	0.06210085
889.2	0.06177103
889.374	0.06137728
889.547	0.06114501
889.72	0.06091586
889.893	0.06061282
890.067	0.060465
890.24	0.06028259
890.413	0.06010376
890.586	0.05998823
890.759	0.0598202
890.933	0.05956456
891.106	0.0595176
891.279	0.05932981
891.452	0.05928391
891.625	0.05922081
891.798	0.0590735
891.971	0.05885125
892.144	0.0586617
892.317	0.05834321
892.49	0.05809096
892.663	0.05778893
892.836	0.05751097
893.009	0.05725215
893.182	0.05706713
893.355	0.05691898
893.527	0.05672019
893.7	0.0566057
893.873	0.05639854
894.046	0.05617867
894.219	0.0558834
894.391	0.05555233
894.564	0.05516062
894.737	0.05499263
894.91	0.05469572
895.082	0.05447214
895.255	0.05427033
895.428	0.05414407
895.6	0.05399935
895.773	0.0539125
895.945	0.05369701
896.118	0.05359326
896.291	0.05347032
896.463	0.05334439
896.636	0.05317882
896.808	0.05301516
896.981	0.05285313
897.153	0.05275027
897.326	0.05259707
897.498	0.05243841
897.67	0.05218235
897.843	0.05196485
898.015	0.05174746
898.187	0.05150302
898.36	0.05123293
898.532	0.05099705
898.704	0.05075827
898.877	0.05058093
899.049	0.05040092
899.221	0.05018645
899.393	0.05008778
899.566	0.0498807
899.738	0.04979595
899.91	0.04972495
900.082	0.04959565
900.254	0.04953473
900.426	0.049506
900.598	0.04937835
900.77	0.04921314
900.942	0.0488769
901.114	0.04846611
901.286	0.04819652
901.458	0.04790435
901.63	0.04760602
901.802	0.0473345
901.974	0.04718944
902.146	0.04708259
902.318	0.04710701
902.49	0.04693565
902.662	0.04676752
902.834	0.04668387
903.005	0.04653361
903.177	0.04641543
903.349	0.04623431
903.521	0.04598361
903.693	0.04587821
903.864	0.04579324
904.036	0.04552742
904.208	0.04537997
904.379	0.04513931
904.551	0.0449951
904.723	0.04485631
904.894	0.04481609
905.066	0.04458506
905.237	0.0445393
905.409	0.04447687
905.58	0.04439134
905.752	0.04422357
905.923	0.04402523
906.095	0.04374355
906.266	0.04361016
906.438	0.04335785
906.609	0.04313296
906.78	0.04301858
906.952	0.04291065
907.123	0.04274496
907.295	0.04253702
907.466	0.04234954
907.637	0.04221724
907.808	0.04213722
907.98	0.04191058
908.151	0.04169659
908.322	0.04161867
908.493	0.04151997
908.665	0.04151404
908.836	0.04139235
909.007	0.04120544
909.178	0.04109229
909.349	0.04094438
909.52	0.04071434
909.691	0.04048628
909.862	0.04008872
910.033	0.03992204
910.204	0.0396577
910.375	0.03938187
910.546	0.03917525
910.717	0.03898508
910.888	0.03895554
911.059	0.03906356
911.23	0.03904797
911.401	0.03905539
911.572	0.03911708
911.742	0.03903919
911.913	0.03912414
912.084	0.03902174
912.255	0.03876893
912.426	0.03854522
912.596	0.03823533
912.767	0.03800444
912.938	0.03778033
913.108	0.03750326
913.279	0.03712206
913.45	0.03695599
913.62	0.03682954
913.791	0.03689625
913.962	0.036817
914.132	0.03680373
914.303	0.03672786
914.473	0.03682582
914.644	0.03669938
914.814	0.0363896
914.985	0.03604655
915.155	0.03581511
915.326	0.0355964
915.496	0.03540068
915.666	0.0351768
915.837	0.03498498
916.007	0.03480763
916.177	0.03469602
916.348	0.03455128
916.518	0.03449403
916.688	0.03436681
916.858	0.03415399
917.029	0.03385395
917.199	0.03384376
917.369	0.03363777
917.539	0.0334846
917.709	0.03326664
917.88	0.03306344
918.05	0.03301145
918.22	0.03317511
918.39	0.03308716
918.56	0.03310264
918.73	0.03299678
918.9	0.03297271
919.07	0.03283865
919.24	0.03272956
919.41	0.03242826
919.58	0.0323796
919.75	0.03233297
919.92	0.03232561
920.09	0.03212459
920.26	0.03210063
920.429	0.03187027
920.599	0.03183617
920.769	0.03166342
920.939	0.03132553
921.109	0.03101193
921.278	0.03095561
921.448	0.03078125
921.618	0.0306538
921.787	0.03053909
921.957	0.0303
922.127	0.03012788
922.296	0.03009004
922.466	0.02994616
922.636	0.03007729
922.805	0.0301274
922.975	0.0300411
923.144	0.03023857
923.314	0.03031848
923.483	0.03032479
923.653	0.03026195
923.822	0.02981975
923.992	0.02956075
924.161	0.0292787
924.331	0.02887051
924.5	0.02863476
924.669	0.02825809
924.839	0.02794247
925.008	0.027856
925.177	0.02778147
925.347	0.02781628
925.516	0.027636
925.685	0.02760972
925.854	0.02754646
926.023	0.02752475
926.193	0.0274998
926.362	0.02731034
926.531	0.0272329
926.7	0.02712162
926.869	0.02698249
927.038	0.02688186
927.207	0.02672636
927.376	0.02660718
927.545	0.02668273
927.715	0.02644724
927.884	0.02645067
928.052	0.02646892
928.221	0.02653606
928.39	0.02661236
928.559	0.02656966
928.728	0.02641755
928.897	0.02646132
929.066	0.0264439
929.235	0.02628745
929.404	0.02617036
929.572	0.02601856
929.741	0.02593375
929.91	0.02590309
930.079	0.02572752
930.247	0.02551771
930.416	0.0254696
930.585	0.02538495
930.753	0.02533714
930.922	0.02522689
931.091	0.02502862
931.259	0.02501833
931.428	0.02491586
931.596	0.0249237
931.765	0.02467504
931.934	0.02465082
932.102	0.0244699
932.27	0.02441201
932.439	0.0242749
932.607	0.02427363
932.776	0.02405371
932.944	0.02415975
933.113	0.02409265
933.281	0.02415016
933.449	0.02395077
933.618	0.02391982
933.786	0.02398055
933.954	0.02372747
934.123	0.0235275
934.291	0.02334149
934.459	0.02310527
934.627	0.02344677
934.795	0.02335215
934.964	0.02305204
935.132	0.02309447
935.3	0.02304487
935.468	0.02297603
935.636	0.02311912
935.804	0.02292875
935.972	0.02301982
936.14	0.02306754
936.308	0.02303641
936.476	0.02328124
936.644	0.02334142
936.812	0.02308741
936.98	0.02308312
937.148	0.02296355
937.316	0.02310937
937.484	0.02335884
937.652	0.02304542
937.82	0.02285487
937.987	0.02322577
938.155	0.02335625
938.323	0.02339042
938.491	0.02387326
938.658	0.02392415
938.826	0.02406182
938.994	0.02434676
939.162	0.02428282
939.329	0.02404478
939.497	0.0240524
939.665	0.02337998
939.832	0.0234968
940	0.02364121
940.167	0.02373861
940.335	0.02376632
940.502	0.02358637
940.67	0.02414614
940.837	0.02486771
941.005	0.02446988
941.172	0.02408419
941.34	0.02382934
941.507	0.02406736
941.674	0.02425265
941.842	0.0237381
942.009	0.02325431
942.177	0.02353502
942.344	0.02370684
942.511	0.0247053
942.678	0.0251531
942.846	0.0259363
943.013	0.02625789
943.18	0.02626608
943.347	0.02566331
943.514	0.02616693
943.682	0.02547828
943.849	0.02513031
944.016	0.0238225
944.183	0.02340077
944.35	0.02297671
944.517	0.02361047
944.684	0.02377351
944.851	0.02334286
945.018	0.02270484
945.185	0.02380064
945.352	0.02439669
945.519	0.02526922
945.686	0.02527493
945.853	0.02618551
946.02	0.02554244
946.187	0.02581162
946.353	0.02505477
946.52	0.02423565
946.687	0.02358768
946.854	0.02418349
947.021	0.0230606
947.187	0.02369783
947.354	0.02256187
947.521	0.02284081
947.687	0.02271606
947.854	0.02234989
948.021	0.02128903
948.187	0.02158881
948.354	0.02161794
948.52	0.02201156
948.687	0.02161102
948.854	0.02126538
949.02	0.02221993
949.187	0.02133551
949.353	0.02022381
949.52	0.0197039
949.686	0.01984874
949.852	0.0193952
950.019	0.01925136
950.185	0.01746205
950.352	0.0187897
950.518	0.01900645
950.684	0.0193074
950.851	0.01863525
951.017	0.0183598
951.183	0.01830418
951.349	0.01901172
951.516	0.01885648
951.682	0.01812843
951.848	0.01718802
952.014	0.01751189
952.18	0.01795801
952.346	0.01828123
952.512	0.01780018
952.679	0.01742573
952.845	0.01783458
953.011	0.01808027
953.177	0.01777115
953.343	0.01693678
953.509	0.01660843
953.675	0.0171405
953.841	0.01673996
954.007	0.01644667
954.172	0.01694238
954.338	0.01694171
954.504	0.01719338
954.67	0.01686175
954.836	0.01654861
955.002	0.01634872
955.167	0.01616086
955.333	0.01574127
955.499	0.01556991
955.665	0.01525377
955.83	0.0150402
955.996	0.01485858
956.162	0.01466402
956.327	0.01485759
956.493	0.01425992
956.659	0.01429899
956.824	0.01450678
956.99	0.01520994
957.155	0.01512261
957.321	0.01549406
957.486	0.01540116
957.652	0.01551001
957.817	0.0150878
957.983	0.01483638
958.148	0.01424059
958.314	0.01423119
958.479	0.01365426
958.644	0.01347302
958.81	0.01310425
958.975	0.01308097
959.14	0.01328067
959.306	0.01279939
959.471	0.01250404
959.636	0.01242534
959.801	0.01223589
959.967	0.01225899
960.132	0.01270583
960.297	0.01222719
960.462	0.01242179
960.627	0.012128
960.792	0.01249029
960.957	0.01270432
961.123	0.01285694
961.288	0.01254441
961.453	0.01247829
961.618	0.01230725
961.783	0.01194852
961.948	0.01169565
962.113	0.01099875
962.277	0.01119452
962.442	0.01070909
962.607	0.01064029
962.772	0.01085196
962.937	0.01122493
963.102	0.01118456
963.267	0.01170774
963.431	0.01122249
963.596	0.01128
963.761	0.01155574
963.926	0.01124754
964.09	0.01159136
964.255	0.0112025
964.42	0.01139496
964.584	0.01144905
964.749	0.01199655
964.914	0.01178348
965.078	0.0121979
965.243	0.01161323
965.407	0.01166246
965.572	0.01107114
965.736	0.01134616
965.901	0.01115221
966.065	0.01142896
966.23	0.01100744
966.394	0.01089247
966.559	0.01118209
966.723	0.0110986
966.887	0.01084755
967.052	0.01077808
967.216	0.01001185
967.38	0.00991923
967.545	0.01037739
967.709	0.01034814
967.873	0.01069469
968.037	0.01074238
968.202	0.01058589
968.366	0.01135375
968.53	0.01164445
968.694	0.01137485
968.858	0.01132361
969.022	0.01108639
969.187	0.0108675
969.351	0.01058939
969.515	0.01043387
969.679	0.01009557
969.843	0.00961047
970.007	0.00937368
970.171	0.00932926
970.335	0.00922644
970.499	0.00937598
970.662	0.00894199
970.826	0.00933118
970.99	0.00982176
971.154	0.00963482
971.318	0.00977413
971.482	0.01014559
971.645	0.01003867
971.809	0.01016961
971.973	0.00955667
972.137	0.00995815
972.3	0.0102644
972.464	0.01026492
972.628	0.00964809
972.791	0.00989149
972.955	0.00972416
973.119	0.0101485
973.282	0.00928655
973.446	0.00883096
973.609	0.00853683
973.773	0.008814
973.936	0.00829272
974.1	0.00872139
974.263	0.00865235
974.427	0.00899153
974.59	0.00947747
974.754	0.01013516
974.917	0.01021838
975.08	0.01013829
975.244	0.00983832
975.407	0.00999698
975.57	0.00987946
975.734	0.00953886
975.897	0.00889292
976.06	0.00879992
976.223	0.00918928
976.387	0.00846228
976.55	0.0082884
976.713	0.0083223
976.876	0.007982
977.039	0.00773304
977.202	0.00749977
977.365	0.00708982
977.528	0.00773229
977.692	0.00780319
977.855	0.00754236
978.018	0.00805274
978.181	0.00822735
978.344	0.00827527
978.506	0.00798759
978.669	0.00746183
978.832	0.00747157
978.995	0.00751321
979.158	0.00743106
979.321	0.00746131
979.484	0.00705787
979.646	0.00739994
979.809	0.0076408
979.972	0.0070916
980.135	0.00712278
980.297	0.00708393
980.46	0.00710962
980.623	0.00712118
980.786	0.00711267
980.948	0.00719249
981.111	0.0073356
981.273	0.00750643
981.436	0.00751535
981.599	0.00765036
981.761	0.00805722
981.924	0.00810281
982.086	0.00836196
982.249	0.00827516
982.411	0.00824756
982.573	0.00798563
982.736	0.00761931
982.898	0.00762069
983.061	0.00713299
983.223	0.00674224
983.385	0.00676136
983.548	0.00641615
983.71	0.00613116
983.872	0.00662666
984.034	0.00635389
984.197	0.00707478
984.359	0.00714827
984.521	0.00704418
984.683	0.0073469
984.845	0.00710346
985.008	0.00653679
985.17	0.00635992
985.332	0.00615393
985.494	0.00624535
985.656	0.00621185
985.818	0.00561683
985.98	0.00588883
986.142	0.00587033
986.304	0.00609357
986.466	0.00579809
986.628	0.005787
986.79	0.00610344
986.952	0.00653111
987.113	0.00631472
987.275	0.00660443
987.437	0.00701216
987.599	0.00689204
987.761	0.00733289
987.922	0.00715737
988.084	0.00663846
988.246	0.00717579
988.408	0.00693046
988.569	0.00621676
988.731	0.00610579
988.893	0.00484475
989.054	0.00452696
989.216	0.00479485
989.377	0.00437663
989.539	0.00444353
989.701	0.00511492
989.862	0.00532649
990.024	0.00594585
990.185	0.00611821
990.347	0.0060519
990.508	0.00661732
990.669	0.00704262
990.831	0.00672764
990.992	0.00758389
991.154	0.00781299
991.315	0.00818591
991.476	0.00880877
991.638	0.00861996
991.799	0.0086364
991.96	0.0087654
992.121	0.00796436
992.283	0.00797987
992.444	0.00768107
992.605	0.00753778
992.766	0.00775579
992.927	0.00658116
993.088	0.00681113
993.249	0.00663642
993.41	0.00587724
993.572	0.00637107
993.733	0.00570829
993.894	0.00576546
994.055	0.00624885
994.216	0.00648016
994.376	0.00714872
994.537	0.00764363
994.698	0.00742675
994.859	0.00773993
995.02	0.00742393
995.181	0.0075512
995.342	0.00755556
995.503	0.00760445
995.663	0.00794724
995.824	0.00770853
995.985	0.00834411
996.146	0.00915861
996.306	0.00941375
996.467	0.00950917
996.628	0.00871084
996.788	0.00834252
996.949	0.00884437
997.11	0.00842978
997.27	0.00776478
997.431	0.00716198
997.591	0.00688349
997.752	0.00767061
997.912	0.00770896
998.073	0.00669776
998.233	0.00619416
998.394	0.0055222
998.554	0.00625985
998.714	0.00563734
998.875	0.00582876
999.035	0.00626468
999.196	0.00770754
999.356	0.00755559
999.516	0.00768616
999.676	0.0076
999.837	0.00796308
999.997	0.00736753
1000.157	0.00709355
1000.317	0.00596569
1000.477	0.0059759
1000.638	0.00626583
1000.798	0.00668633
1000.958	0.0066635
1001.118	0.00645173
1001.278	0.00615395
1001.438	0.00626471
1001.598	0.00702056
1001.758	0.00702287
1001.918	0.00598292
1002.078	0.00668731
1002.238	0.00731795
1002.398	0.00818822
1002.558	0.00837573
1002.718	0.00853586
1002.878	0.00890331
1003.037	0.00932732
1003.197	0.00824718
1003.357	0.00805949
1003.517	0.00701145
1003.677	0.00671683
1003.836	0.00683301
1003.996	0.00638517
1004.156	0.00705166
1004.315	0.00778019
1004.475	0.00680794
1004.635	0.00758569
1004.794	0.00654789
1004.954	0.00605337
1005.114	0.00618446
1005.273	0.0047199
1005.433	0.00385105
1005.592	0.0046483
1005.752	0.0041008
1005.911	0.0056912
1006.071	0.00594121
1006.23	0.00658866
1006.389	0.00670814
1006.549	0.0075697
1006.708	0.00733
1006.868	0.00766708
1007.027	0.00776688
1007.186	0.00761522
1007.345	0.00687849
1007.505	0.00711984
1007.664	0.00681273
1007.823	0.00731266
1007.982	0.00707588
1008.142	0.00593427
1008.301	0.00570526
1008.46	0.00626992
1008.619	0.00750956
1008.778	0.00776371
1008.937	0.00687695
1009.096	0.006467
1009.255	0.00747714
1009.414	0.00758721
1009.573	0.00674721
1009.732	0.00588699
1009.891	0.00595754
1010.05	0.00598755
1010.209	0.00623413
1010.368	0.00646416
1010.527	0.00620291
1010.686	0.0065043
1010.845	0.00616544
1011.003	0.006197
1011.162	0.00794941
1011.321	0.00880022
1011.48	0.00795041
1011.638	0.00822765
1011.797	0.00839368
1011.956	0.0091801
1012.115	0.00720185
1012.273	0.00710944
1012.432	0.0074018
1012.59	0.00879438
1012.749	0.01025038
1012.908	0.01172316
1013.066	0.01158622
1013.225	0.01414602
1013.383	0.01345996
1013.542	0.01267063
1013.7	0.01337996
1013.859	0.01217655
1014.017	0.01191016
1014.175	0.01201529
1014.334	0.01187518
1014.492	0.01140324
1014.65	0.01181113
1014.809	0.0104146
1014.967	0.01014555
1015.125	0.00926486
1015.284	0.00912343
1015.442	0.0097616
1015.6	0.01077785
1015.758	0.01147487
1015.916	0.01293657
1016.075	0.01237817
1016.233	0.0132062
1016.391	0.0143369
1016.549	0.0136209
1016.707	0.01426136
1016.865	0.01395781
1017.023	0.01278264
1017.181	0.01303059
1017.339	0.01144431
1017.497	0.0112472
1017.655	0.00996968
1017.813	0.00957411
1017.971	0.01104064
1018.129	0.01358198
1018.286	0.01521658
1018.444	0.01672648
1018.602	0.01634154
1018.76	0.01768202
1018.918	0.0181026
1019.075	0.01812294
1019.233	0.01418804
1019.391	0.01356938
1019.549	0.01398481
1019.706	0.01409711
1019.864	0.01466315
1020.022	0.01346305
1020.179	0.00925149
1020.337	0.00949436
1020.494	0.01128155
1020.652	0.01165358
1020.809	0.01212055
1020.967	0.01120844
1021.124	0.01222631
1021.282	0.01391987
1021.439	0.0150045
1021.597	0.01481838
1021.754	0.01531513
1021.911	0.01431333
1022.069	0.0138673
1022.226	0.01510488
1022.384	0.01798629
1022.541	0.01626357
1022.698	0.01602343
1022.855	0.01577187
1023.013	0.0161333
1023.17	0.01576337
1023.327	0.01484199
1023.484	0.01202158
1023.641	0.01458794
1023.798	0.01626547
1023.956	0.01412261
1024.113	0.01477678
1024.27	0.01753521
1024.427	0.01719968
1024.584	0.01872269
1024.741	0.0207133
1024.898	0.01938859
1025.055	0.02254716
1025.212	0.02234309
1025.369	0.0219159
1025.525	0.02024916
1025.682	0.02122412
1025.839	0.0186911
1025.996	0.01881649
1026.153	0.01729425
1026.31	0.01808764
1026.466	0.01684336
1026.623	0.02431236
1026.78	0.0222869
1026.937	0.02641062
1027.093	0.02662467
1027.25	0.02710882
1027.407	0.02522658
1027.563	0.02783828
1027.72	0.02282378
1027.876	0.02524108
1028.033	0.02178387
1028.19	0.01912391
1028.346	0.01864732
1028.503	0.02096971
1028.659	0.02107785
1028.816	0.02162405
1028.972	0.01688096
1029.128	0.01638004
1029.285	0.01645083
1029.441	0.0129691
1029.598	0.01173673
1029.754	0.0213892
1029.91	0.01762482
1030.067	0.0214299
1030.223	0.016907
1030.379	0.02049889
1030.535	0.02731187
1030.691	0.02787726
1030.848	0.01375307
1031.004	0.02213156
1031.16	0.02536362
1031.316	0.03549823
1031.472	0.03274153
1031.628	0.0289994
1031.784	0.03004108
1031.94	0.0270622
1032.096	0.02517551
1032.252	0.02272533
1032.408	0.01663023
1032.564	0.01703024
1032.72	0.01664219
1032.876	0.01423646
1033.032	0.0254368
1033.188	0.02818647
1033.344	0.03369949
1033.5	0.04302771
1033.655	0.04807283
1033.811	0.05230337
1033.967	0.06625007
