Data from 0_1_mm_pl_30pc_Absorbance__0__18-28-16-226.txt Node

Date: Wed Mar 01 18:28:16 CET 2023
User: Ange
Spectrometer: FLMT08341
Trigger mode: 0
Integration Time (sec): 1.000000E-2
Scans to average: 400
Electric dark correction enabled: true
Nonlinearity correction enabled: false
Boxcar width: 3
XAxis mode: Wavelengths
Number of Pixels in Spectrum: 3648
>>>>>Begin Spectral Data<<<<<
345.271	-0.02282604
345.487	-0.01272913
345.704	-0.00349603
345.921	-0.00254727
346.137	-0.00672519
346.354	-0.01249534
346.571	0.00300031
346.787	0.04742603
347.004	-0.0386009
347.22	0.02614745
347.437	0.02754936
347.653	-0.18320236
347.87	0.1115411
348.086	0.02364677
348.303	-0.42804274
348.519	0.0269971
348.736	0.03604736
348.952	0.03598461
349.169	0.03555098
349.385	0.04177343
349.601	0.04280253
349.818	0.04299437
350.034	0.04323414
350.251	0.04415396
350.467	0.04600205
350.683	0.04624253
350.9	0.04556489
351.116	0.04581837
351.332	0.04600283
351.549	0.04581522
351.765	0.04649706
351.981	0.04743562
352.197	0.04864403
352.414	0.05021847
352.63	0.04985956
352.846	0.05062525
353.062	0.05336105
353.278	0.05305723
353.495	0.05294851
353.711	0.0538715
353.927	0.05362608
354.143	0.05362127
354.359	0.05217096
354.575	0.0506354
354.792	0.0529512
355.008	0.05211315
355.224	0.05021257
355.44	0.04941137
355.656	0.05083797
355.872	0.0524048
356.088	0.0533918
356.304	0.05149688
356.52	0.05243469
356.736	0.05317978
356.952	0.05468459
357.168	0.05393304
357.384	0.05551593
357.6	0.05570919
357.816	0.0565274
358.032	0.05639528
358.248	0.0577476
358.464	0.0583904
358.679	0.05965394
358.895	0.06105539
359.111	0.06193494
359.327	0.06116585
359.543	0.06378938
359.759	0.06431399
359.974	0.06381015
360.19	0.06264216
360.406	0.06118317
360.622	0.06131072
360.838	0.06155364
361.053	0.05996555
361.269	0.06117949
361.485	0.06121068
361.701	0.06188206
361.916	0.06100534
362.132	0.06078443
362.348	0.06137991
362.563	0.06198512
362.779	0.06077118
362.995	0.06172917
363.21	0.06323994
363.426	0.06406432
363.641	0.06348935
363.857	0.06395114
364.073	0.06381285
364.288	0.06333102
364.504	0.06436776
364.719	0.06389569
364.935	0.06340136
365.15	0.0638745
365.366	0.06396558
365.581	0.06463669
365.797	0.06565171
366.012	0.06489757
366.228	0.06460321
366.443	0.06506912
366.658	0.06614909
366.874	0.06582461
367.089	0.06632681
367.305	0.06685227
367.52	0.06654039
367.735	0.06724983
367.951	0.06762834
368.166	0.06772599
368.381	0.06823757
368.597	0.06859162
368.812	0.06903586
369.027	0.07002889
369.243	0.07052702
369.458	0.07130216
369.673	0.07186492
369.888	0.07235026
370.104	0.07181211
370.319	0.07211858
370.534	0.07230928
370.749	0.07211522
370.964	0.0734662
371.179	0.07279056
371.395	0.07297388
371.61	0.07297641
371.825	0.07265255
372.04	0.07321878
372.255	0.07321101
372.47	0.07133374
372.685	0.07259117
372.9	0.07239107
373.115	0.07299532
373.33	0.07332971
373.545	0.07327017
373.76	0.07377753
373.975	0.07485878
374.19	0.07359815
374.405	0.07366682
374.62	0.07445367
374.835	0.07463874
375.05	0.07450767
375.265	0.07472981
375.48	0.07408375
375.695	0.07574168
375.91	0.07714701
376.125	0.07679841
376.339	0.07686156
376.554	0.07764272
376.769	0.07795866
376.984	0.07955312
377.199	0.0800627
377.414	0.07890364
377.628	0.07928824
377.843	0.08022867
378.058	0.08081499
378.273	0.0810051
378.487	0.08015003
378.702	0.08111841
378.917	0.08222021
379.131	0.08275114
379.346	0.08233425
379.561	0.08212495
379.775	0.08243855
379.99	0.08254211
380.205	0.08133409
380.419	0.08115939
380.634	0.07984695
380.848	0.08041889
381.063	0.08093881
381.278	0.08073959
381.492	0.08105308
381.707	0.08217162
381.921	0.0820947
382.136	0.08417368
382.35	0.0840385
382.565	0.08389279
382.779	0.08451641
382.994	0.08491589
383.208	0.08406488
383.422	0.08522257
383.637	0.08487687
383.851	0.08518378
384.066	0.08575645
384.28	0.08571534
384.494	0.08586732
384.709	0.08643794
384.923	0.08638887
385.137	0.08677723
385.352	0.08676192
385.566	0.08610832
385.78	0.08636314
385.995	0.08642574
386.209	0.08671801
386.423	0.08718282
386.637	0.08690824
386.852	0.08729953
387.066	0.08799696
387.28	0.08827326
387.494	0.08910271
387.708	0.08926527
387.923	0.08939492
388.137	0.09036994
388.351	0.09086055
388.565	0.09166331
388.779	0.09189932
388.993	0.09253826
389.207	0.09307636
389.421	0.09301059
389.635	0.09258471
389.85	0.09285264
390.064	0.09269169
390.278	0.09278165
390.492	0.09209864
390.706	0.09225062
390.92	0.09254403
391.134	0.09297449
391.348	0.09299433
391.561	0.09281654
391.775	0.09310894
391.989	0.09320792
392.203	0.093288
392.417	0.09347577
392.631	0.0936595
392.845	0.09352506
393.059	0.09491402
393.273	0.09482839
393.486	0.09481062
393.7	0.09490251
393.914	0.095279
394.128	0.09518837
394.342	0.09572366
394.555	0.09477493
394.769	0.09515059
394.983	0.09582634
395.197	0.09603918
395.41	0.09617775
395.624	0.09657032
395.838	0.09654768
396.051	0.09745716
396.265	0.09735312
396.479	0.0975576
396.692	0.09757831
396.906	0.09738206
397.12	0.09745842
397.333	0.09735626
397.547	0.09692036
397.76	0.09744789
397.974	0.09726947
398.187	0.09715453
398.401	0.09773994
398.614	0.09779431
398.828	0.09813266
399.041	0.09823395
399.255	0.09811337
399.468	0.09830922
399.682	0.09899365
399.895	0.09927315
400.109	0.0994917
400.322	0.09946027
400.536	0.09929496
400.749	0.09970764
400.962	0.09999538
401.176	0.09974452
401.389	0.09950649
401.602	0.09921902
401.816	0.09930011
402.029	0.10015782
402.242	0.0998658
402.456	0.0998459
402.669	0.09997255
402.882	0.09964411
403.095	0.10032778
403.309	0.10060369
403.522	0.10036718
403.735	0.10069623
403.948	0.1007772
404.161	0.10126446
404.375	0.10178374
404.588	0.10168687
404.801	0.10152406
405.014	0.10154876
405.227	0.10161595
405.44	0.10177564
405.653	0.10164996
405.866	0.10119611
406.079	0.10094116
406.293	0.10109479
406.506	0.10104556
406.719	0.10087389
406.932	0.10073974
407.145	0.10048019
407.358	0.10085309
407.571	0.10045085
407.784	0.10059601
407.996	0.10048474
408.209	0.10045696
408.422	0.10019159
408.635	0.1004552
408.848	0.10026251
409.061	0.10062333
409.274	0.10071807
409.487	0.10052681
409.7	0.10072627
409.912	0.10098376
410.125	0.10098725
410.338	0.10086957
410.551	0.10070062
410.764	0.10037777
410.976	0.10045325
411.189	0.10010016
411.402	0.09991897
411.615	0.0996626
411.827	0.09968636
412.04	0.09970065
412.253	0.09976842
412.465	0.09985214
412.678	0.09992234
412.891	0.0997895
413.103	0.09930755
413.316	0.09920815
413.529	0.09916261
413.741	0.09896265
413.954	0.09867533
414.166	0.09848334
414.379	0.09852802
414.591	0.09861509
414.804	0.09833788
415.016	0.09805903
415.229	0.09769705
415.441	0.09767756
415.654	0.0976086
415.866	0.0974348
416.079	0.09723007
416.291	0.09707493
416.504	0.09742953
416.716	0.09736319
416.928	0.09705545
417.141	0.09667347
417.353	0.09650583
417.566	0.09631262
417.778	0.09608547
417.99	0.09531768
418.203	0.09522144
418.415	0.09504593
418.627	0.0951146
418.839	0.0947118
419.052	0.09483434
419.264	0.09484291
419.476	0.09491584
419.688	0.09490003
419.901	0.09464734
420.113	0.09415142
420.325	0.09419558
420.537	0.09393917
420.749	0.09383539
420.961	0.09364131
421.174	0.09339203
421.386	0.09313451
421.598	0.09322553
421.81	0.09283488
422.022	0.09249403
422.234	0.09215094
422.446	0.09183265
422.658	0.09144569
422.87	0.09117175
423.082	0.09078956
423.294	0.09049545
423.506	0.09003426
423.718	0.08975283
423.93	0.08940158
424.142	0.08908982
424.354	0.08865566
424.566	0.08824203
424.778	0.08804645
424.99	0.08792643
425.202	0.08769775
425.414	0.0875899
425.625	0.08725887
425.837	0.08715959
426.049	0.08711733
426.261	0.08672366
426.473	0.08646425
426.684	0.08594065
426.896	0.08549182
427.108	0.08518683
427.32	0.08489821
427.531	0.0846121
427.743	0.08450106
427.955	0.08432545
428.167	0.08413103
428.378	0.08395754
428.59	0.08366952
428.802	0.0835109
429.013	0.08303221
429.225	0.08235917
429.436	0.08171702
429.648	0.0814108
429.86	0.0809515
430.071	0.08058748
430.283	0.08010508
430.494	0.07971507
430.706	0.07971229
430.917	0.07930624
431.129	0.07903364
431.34	0.07883134
431.552	0.0787835
431.763	0.07858589
431.975	0.07850264
432.186	0.07795444
432.398	0.0778211
432.609	0.07730115
432.821	0.07685356
433.032	0.07636403
433.243	0.07596176
433.455	0.07553231
433.666	0.0753369
433.877	0.07508427
434.089	0.07475857
434.3	0.07446644
434.511	0.07404662
434.723	0.07357849
434.934	0.07310199
435.145	0.07276659
435.356	0.07230268
435.568	0.07203481
435.779	0.07172691
435.99	0.07152902
436.201	0.0713402
436.412	0.071074
436.624	0.07086859
436.835	0.07064287
437.046	0.0704469
437.257	0.0700635
437.468	0.06963497
437.679	0.06924168
437.89	0.0688366
438.101	0.06844233
438.312	0.06800449
438.523	0.06762992
438.734	0.06719456
438.945	0.06675004
439.156	0.06642048
439.367	0.06611352
439.578	0.0657744
439.789	0.06536895
440	0.06482496
440.211	0.06442837
440.422	0.06407853
440.633	0.06359028
440.844	0.063098
441.055	0.0625654
441.266	0.06221567
441.477	0.06179323
441.687	0.06140108
441.898	0.06100222
442.109	0.06056874
442.32	0.06044459
442.531	0.06000405
442.741	0.05949349
442.952	0.05913576
443.163	0.05866691
443.374	0.05823418
443.584	0.05789459
443.795	0.05732262
444.006	0.05689691
444.216	0.05667366
444.427	0.05643962
444.638	0.05601343
444.848	0.05572519
445.059	0.05527833
445.27	0.05476574
445.48	0.05444685
445.691	0.0539435
445.901	0.05338666
446.112	0.05315688
446.323	0.05266423
446.533	0.05223856
446.744	0.05176983
446.954	0.05129626
447.165	0.0509897
447.375	0.05073875
447.586	0.05041398
447.796	0.05006179
448.006	0.04974557
448.217	0.04956523
448.427	0.04917787
448.638	0.04869071
448.848	0.04814835
449.058	0.04767038
449.269	0.04726796
449.479	0.0469436
449.689	0.04654479
449.9	0.04641492
450.11	0.04613528
450.32	0.04587343
450.531	0.04540832
450.741	0.04504206
450.951	0.04454832
451.161	0.04414895
451.372	0.04356949
451.582	0.04348055
451.792	0.0431733
452.002	0.04290304
452.212	0.04255122
452.422	0.04246416
452.633	0.04220697
452.843	0.04209919
453.053	0.0415888
453.263	0.04128693
453.473	0.04109456
453.683	0.04082832
453.893	0.04028965
454.103	0.04005255
454.313	0.03968596
454.523	0.03934404
454.733	0.03903091
454.943	0.03860627
455.153	0.03842918
455.363	0.03816911
455.573	0.03766316
455.783	0.03735721
455.993	0.03708172
456.203	0.03669261
456.413	0.03644538
456.623	0.03585597
456.833	0.0356425
457.042	0.03544373
457.252	0.03506356
457.462	0.03469073
457.672	0.03448861
457.882	0.03416768
458.091	0.03413937
458.301	0.03368159
458.511	0.0333684
458.721	0.03305997
458.931	0.03283325
459.14	0.03248545
459.35	0.032131
459.56	0.03178672
459.769	0.03178767
459.979	0.03161163
460.189	0.03137459
460.398	0.03109499
460.608	0.0309432
460.817	0.03082615
461.027	0.03054038
461.237	0.03012143
461.446	0.02980968
461.656	0.02958413
461.865	0.02926
462.075	0.02900033
462.284	0.02872277
462.494	0.02851352
462.703	0.02825485
462.913	0.0278812
463.122	0.02766877
463.332	0.02745227
463.541	0.02719345
463.751	0.02698116
463.96	0.02666617
464.169	0.02662673
464.379	0.02660007
464.588	0.02641104
464.797	0.02624221
465.007	0.02602889
465.216	0.0258862
465.425	0.02576255
465.635	0.02542618
465.844	0.02524427
466.053	0.02499931
466.263	0.02482678
466.472	0.02464891
466.681	0.02445438
466.89	0.0242119
467.099	0.02397522
467.309	0.02369501
467.518	0.02344122
467.727	0.02324755
467.936	0.02306294
468.145	0.02281852
468.354	0.02278979
468.563	0.02272496
468.772	0.02262322
468.982	0.02266605
469.191	0.02261534
469.4	0.02241958
469.609	0.02233692
469.818	0.02219338
470.027	0.02194
470.236	0.0217341
470.445	0.02142691
470.654	0.02116228
470.863	0.02103104
471.072	0.02082954
471.28	0.02058769
471.489	0.02052378
471.698	0.02037239
471.907	0.020223
472.116	0.02006636
472.325	0.01984213
472.534	0.01975016
472.743	0.01957909
472.951	0.01946473
473.16	0.01940813
473.369	0.01943119
473.578	0.01937254
473.786	0.0193513
473.995	0.0191808
474.204	0.01909762
474.413	0.01891124
474.621	0.0187002
474.83	0.018425
475.039	0.01826975
475.247	0.01810288
475.456	0.01795104
475.665	0.01784304
475.873	0.0177585
476.082	0.01768681
476.291	0.01769337
476.499	0.01763949
476.708	0.01768674
476.916	0.01772261
477.125	0.01770842
477.333	0.01763668
477.542	0.01760166
477.75	0.01744457
477.959	0.01728104
478.167	0.01708539
478.376	0.01684544
478.584	0.01670624
478.793	0.01663414
479.001	0.01648756
479.209	0.01649424
479.418	0.01646204
479.626	0.01638305
479.834	0.01638761
480.043	0.01627385
480.251	0.01623519
480.459	0.01622194
480.668	0.01609159
480.876	0.01600538
481.084	0.01587754
481.293	0.01583282
481.501	0.01580559
481.709	0.01566294
481.917	0.0155774
482.125	0.01547618
482.334	0.01547027
482.542	0.01554078
482.75	0.01542051
482.958	0.01539917
483.166	0.0153817
483.374	0.01533435
483.583	0.01540148
483.791	0.01533033
483.999	0.01528485
484.207	0.01536688
484.415	0.01535836
484.623	0.01534607
484.831	0.01527506
485.039	0.01518427
485.247	0.01510412
485.455	0.01505467
485.663	0.01489751
485.871	0.01483922
486.079	0.01483447
486.287	0.01480584
486.495	0.01479979
486.702	0.01488011
486.91	0.01489421
487.118	0.01494606
487.326	0.01489061
487.534	0.01485157
487.742	0.01481452
487.95	0.01475676
488.157	0.01462819
488.365	0.01459821
488.573	0.01455087
488.781	0.01453375
488.988	0.01447886
489.196	0.01462404
489.404	0.01467321
489.612	0.01475301
489.819	0.01475473
490.027	0.01479129
490.235	0.01486388
490.442	0.01489341
490.65	0.01486095
490.857	0.0148586
491.065	0.01482551
491.273	0.01479797
491.48	0.01485016
491.688	0.01477084
491.895	0.01482105
492.103	0.0147485
492.31	0.01475589
492.518	0.01479563
492.725	0.01476117
492.933	0.0146609
493.14	0.01466853
493.348	0.0146353
493.555	0.01471213
493.763	0.01469895
493.97	0.01467841
494.177	0.01474923
494.385	0.01485946
494.592	0.01489379
494.8	0.01491
495.007	0.01483072
495.214	0.01484376
495.422	0.01489311
495.629	0.01493089
495.836	0.01488857
496.043	0.01498569
496.251	0.01509077
496.458	0.01518496
496.665	0.01526612
496.872	0.01529129
497.08	0.01526578
497.287	0.01536074
497.494	0.01535223
497.701	0.01536147
497.908	0.01541264
498.115	0.01545144
498.322	0.01543461
498.53	0.01550434
498.737	0.01549465
498.944	0.01551716
499.151	0.01552842
499.358	0.01552544
499.565	0.01554384
499.772	0.01565426
499.979	0.01573571
500.186	0.01575606
500.393	0.0158287
500.6	0.01585458
500.807	0.01595384
501.014	0.01603075
501.221	0.01607575
501.427	0.01606352
501.634	0.01618576
501.841	0.01623893
502.048	0.01630444
502.255	0.01638109
502.462	0.01640585
502.669	0.0164657
502.875	0.01655638
503.082	0.01658531
503.289	0.01661703
503.496	0.016637
503.702	0.01666484
503.909	0.01674014
504.116	0.01683108
504.323	0.01686836
504.529	0.01687969
504.736	0.01692857
504.943	0.01705051
505.149	0.017113
505.356	0.01711398
505.563	0.01715114
505.769	0.01721452
505.976	0.01732471
506.182	0.01745429
506.389	0.0175182
506.595	0.01756373
506.802	0.0176882
507.008	0.01768818
507.215	0.017715
507.421	0.01778863
507.628	0.017834
507.834	0.01789871
508.041	0.01799277
508.247	0.01801234
508.454	0.01813926
508.66	0.01828255
508.866	0.01838571
509.073	0.01846108
509.279	0.01850324
509.486	0.01853382
509.692	0.01862909
509.898	0.01868415
510.105	0.01873043
510.311	0.0187725
510.517	0.01890359
510.723	0.0189716
510.93	0.01905449
511.136	0.01924151
511.342	0.01934054
511.548	0.0194099
511.754	0.01949523
511.961	0.01951596
512.167	0.01963459
512.373	0.01977216
512.579	0.01983327
512.785	0.0199293
512.991	0.02004409
513.197	0.02007011
513.404	0.02020301
513.61	0.0202743
513.816	0.02038125
514.022	0.02042185
514.228	0.0204787
514.434	0.02056976
514.64	0.02068315
514.846	0.02073649
515.052	0.0208321
515.258	0.02082274
515.464	0.0208946
515.669	0.02102164
515.875	0.02109928
516.081	0.02123548
516.287	0.02132977
516.493	0.02145287
516.699	0.02161279
516.905	0.02170507
517.111	0.02180846
517.316	0.02193978
517.522	0.02205626
517.728	0.02215603
517.934	0.0222525
518.139	0.02236254
518.345	0.02247693
518.551	0.02253778
518.757	0.02263153
518.962	0.02275374
519.168	0.02288295
519.374	0.02296757
519.579	0.02305086
519.785	0.02318616
519.991	0.02331553
520.196	0.02342002
520.402	0.02350745
520.607	0.02359721
520.813	0.02366057
521.018	0.02381313
521.224	0.02392803
521.429	0.0240573
521.635	0.02416573
521.84	0.02427805
522.046	0.02440487
522.251	0.02461345
522.457	0.024725
522.662	0.02478581
522.868	0.02488089
523.073	0.02499686
523.279	0.02511457
523.484	0.02520358
523.689	0.02529405
523.895	0.0253929
524.1	0.02548591
524.305	0.0256036
524.511	0.02573906
524.716	0.02583954
524.921	0.02597966
525.126	0.0260978
525.332	0.02622739
525.537	0.02638776
525.742	0.02656074
525.947	0.02667762
526.153	0.02678382
526.358	0.02689586
526.563	0.02702884
526.768	0.02716153
526.973	0.02728287
527.178	0.02735573
527.383	0.02746481
527.588	0.02767307
527.794	0.02779611
527.999	0.02790114
528.204	0.02801669
528.409	0.02820488
528.614	0.02834803
528.819	0.02850906
529.024	0.02859506
529.229	0.0287351
529.434	0.0289215
529.639	0.02908536
529.843	0.02918439
530.048	0.02934628
530.253	0.0294443
530.458	0.0296023
530.663	0.02973495
530.868	0.02981238
531.073	0.02993459
531.278	0.0300873
531.482	0.03022354
531.687	0.03044004
531.892	0.0305575
532.097	0.0306958
532.302	0.03086989
532.506	0.03100686
532.711	0.03113956
532.916	0.03128468
533.12	0.03143721
533.325	0.03157642
533.53	0.03170584
533.734	0.0318592
533.939	0.0319702
534.144	0.03212093
534.348	0.03225656
534.553	0.03236873
534.757	0.03253867
534.962	0.03273377
535.167	0.03286099
535.371	0.03303545
535.576	0.0332253
535.78	0.03337659
535.985	0.03352245
536.189	0.0336421
536.394	0.03374493
536.598	0.03389912
536.803	0.03405812
537.007	0.03416673
537.211	0.03433216
537.416	0.03444728
537.62	0.03463874
537.825	0.03484949
538.029	0.03499632
538.233	0.03519757
538.438	0.03539505
538.642	0.03554419
538.846	0.03574683
539.05	0.03589412
539.255	0.03602027
539.459	0.03619632
539.663	0.03633465
539.867	0.03647502
540.072	0.03665067
540.276	0.03677223
540.48	0.03693638
540.684	0.03711595
540.888	0.03725919
541.092	0.0374008
541.297	0.03753912
541.501	0.03770154
541.705	0.03790607
541.909	0.03809482
542.113	0.03824131
542.317	0.03846809
542.521	0.03861906
542.725	0.03879107
542.929	0.0389256
543.133	0.03908604
543.337	0.03924282
543.541	0.03941633
543.745	0.0395045
543.949	0.03969975
544.153	0.03987375
544.357	0.04005766
544.56	0.04023887
544.764	0.04037296
544.968	0.04056309
545.172	0.04075841
545.376	0.04093923
545.58	0.04114933
545.783	0.04134194
545.987	0.04154472
546.191	0.04174309
546.395	0.04191774
546.598	0.04211501
546.802	0.04229348
547.006	0.04244347
547.21	0.04257501
547.413	0.04272339
547.617	0.04287984
547.821	0.04306837
548.024	0.04326299
548.228	0.0434075
548.431	0.04360178
548.635	0.04381964
548.839	0.0439521
549.042	0.0441464
549.246	0.04429953
549.449	0.04447591
549.653	0.04470005
549.856	0.04485593
550.06	0.04502447
550.263	0.04524549
550.467	0.0454087
550.67	0.04554947
550.874	0.04571392
551.077	0.04586413
551.28	0.04607363
551.484	0.04621538
551.687	0.04642493
551.891	0.04666811
552.094	0.04691034
552.297	0.04707565
552.501	0.04726998
552.704	0.04742986
552.907	0.04763765
553.11	0.04780135
553.314	0.04789623
553.517	0.04807434
553.72	0.04827805
553.923	0.04846202
554.127	0.04864601
554.33	0.04885169
554.533	0.04903911
554.736	0.04924693
554.939	0.04944461
555.142	0.0496223
555.345	0.04981185
555.549	0.04999254
555.752	0.05013893
555.955	0.05029831
556.158	0.05051585
556.361	0.05068552
556.564	0.05087617
556.767	0.05107088
556.97	0.05126724
557.173	0.05143658
557.376	0.0516151
557.579	0.05178456
557.782	0.05195814
557.984	0.05216522
558.187	0.05234378
558.39	0.05250228
558.593	0.05273688
558.796	0.05294759
558.999	0.05317029
559.202	0.05336263
559.404	0.05355283
559.607	0.05375321
559.81	0.05395333
560.013	0.05415847
560.216	0.05432809
560.418	0.05452026
560.621	0.05474067
560.824	0.05493072
561.026	0.05511493
561.229	0.05535484
561.432	0.05557734
561.634	0.05581793
561.837	0.05598839
562.04	0.056151
562.242	0.05633249
562.445	0.05653581
562.647	0.05671618
562.85	0.05685366
563.053	0.05702836
563.255	0.0572561
563.458	0.05746987
563.66	0.05765923
563.863	0.05783623
564.065	0.05796053
564.268	0.05817266
564.47	0.05835872
564.672	0.05854837
564.875	0.05871741
565.077	0.05895118
565.28	0.05918929
565.482	0.05946326
565.684	0.05968232
565.887	0.05987935
566.089	0.06006733
566.291	0.06026843
566.494	0.06044629
566.696	0.06060904
566.898	0.06075984
567.1	0.06090278
567.303	0.06109826
567.505	0.06129721
567.707	0.06146517
567.909	0.06163315
568.111	0.06183338
568.314	0.06202495
568.516	0.06222702
568.718	0.06240726
568.92	0.0625662
569.122	0.06280569
569.324	0.06302112
569.526	0.0631685
569.728	0.06340184
569.93	0.06358175
570.132	0.06377529
570.334	0.0639516
570.536	0.06412257
570.738	0.06426073
570.94	0.06440348
571.142	0.06456499
571.344	0.06475801
571.546	0.06489485
571.748	0.06512413
571.95	0.06527486
572.152	0.06546977
572.354	0.06574538
572.555	0.06594197
572.757	0.06612252
572.959	0.06638529
573.161	0.06654232
573.363	0.06671171
573.564	0.06691924
573.766	0.06707954
573.968	0.06730571
574.17	0.06752637
574.371	0.06763771
574.573	0.067781
574.775	0.06797441
574.976	0.06816438
575.178	0.06834001
575.38	0.06848669
575.581	0.06865739
575.783	0.06888749
575.985	0.06909132
576.186	0.06934754
576.388	0.0695571
576.589	0.06973587
576.791	0.06992041
576.992	0.07010967
577.194	0.07030322
577.395	0.07052003
577.597	0.07065812
577.798	0.07082511
578	0.07099652
578.201	0.07119728
578.402	0.07140901
578.604	0.07155398
578.805	0.07171113
579.007	0.07189515
579.208	0.07206015
579.409	0.07223577
579.611	0.07238549
579.812	0.07252766
580.013	0.0727597
580.215	0.0729133
580.416	0.07309969
580.617	0.07325524
580.818	0.07347326
581.019	0.07365627
581.221	0.07380475
581.422	0.0739835
581.623	0.07424384
581.824	0.07438496
582.025	0.07459214
582.226	0.07473341
582.428	0.07492273
582.629	0.07512035
582.83	0.07527005
583.031	0.07537319
583.232	0.07559932
583.433	0.07581619
583.634	0.07602876
583.835	0.07616834
584.036	0.07635161
584.237	0.07647271
584.438	0.07665772
584.639	0.07679316
584.84	0.07693068
585.041	0.07706942
585.242	0.07725063
585.442	0.07740187
585.643	0.07762207
585.844	0.07780538
586.045	0.07797039
586.246	0.07809368
586.447	0.07823041
586.647	0.07837735
586.848	0.07852652
587.049	0.07867474
587.25	0.07877649
587.45	0.07894896
587.651	0.07912109
587.852	0.07927857
588.053	0.07949383
588.253	0.07967113
588.454	0.07984761
588.655	0.08003906
588.855	0.08017628
589.056	0.08028267
589.256	0.08043779
589.457	0.08057045
589.658	0.08072147
589.858	0.08084203
590.059	0.08101441
590.259	0.08116607
590.46	0.0813835
590.66	0.08152963
590.861	0.08165154
591.061	0.08179327
591.262	0.08196953
591.462	0.0821095
591.662	0.08227458
591.863	0.08237516
592.063	0.08253542
592.264	0.08270543
592.464	0.08283768
592.664	0.08294305
592.865	0.08309911
593.065	0.08318692
593.265	0.08336775
593.465	0.08348596
593.666	0.08359541
593.866	0.0837237
594.066	0.08388321
594.266	0.08398561
594.467	0.0841289
594.667	0.08422465
594.867	0.08441627
595.067	0.08453588
595.267	0.08467998
595.467	0.0847665
595.668	0.08491239
595.868	0.0850782
596.068	0.08521255
596.268	0.08529752
596.468	0.08547755
596.668	0.08561679
596.868	0.08580353
597.068	0.08595751
597.268	0.0861072
597.468	0.08624433
597.668	0.08637531
597.868	0.08647344
598.068	0.08659691
598.268	0.08668301
598.467	0.0868155
598.667	0.08685354
598.867	0.08692492
599.067	0.08701887
599.267	0.08714664
599.467	0.08723951
599.667	0.08735003
599.866	0.08743673
600.066	0.08758747
600.266	0.08770387
600.466	0.08782622
600.665	0.08785592
600.865	0.087968
601.065	0.08808008
601.264	0.08817066
601.464	0.08824987
601.664	0.08840582
601.863	0.08854405
602.063	0.08869955
602.263	0.0887778
602.462	0.08886132
602.662	0.08891462
602.861	0.08906303
603.061	0.08910012
603.26	0.08916124
603.46	0.0892075
603.659	0.08928437
603.859	0.0893167
604.058	0.0894116
604.258	0.08948861
604.457	0.0896158
604.657	0.08964887
604.856	0.0897271
605.056	0.08988049
605.255	0.08998162
605.454	0.09009724
605.654	0.09013728
605.853	0.09020377
606.052	0.09032656
606.252	0.09043429
606.451	0.09050312
606.65	0.09062538
606.849	0.09064749
607.049	0.09072827
607.248	0.09078047
607.447	0.09085276
607.646	0.09091852
607.845	0.09093999
608.045	0.09098655
608.244	0.0911035
608.443	0.09120352
608.642	0.09133949
608.841	0.09136666
609.04	0.09142005
609.239	0.09149743
609.438	0.09152327
609.637	0.09159574
609.836	0.09164251
610.035	0.09166995
610.234	0.09177579
610.433	0.09182535
610.632	0.09190781
610.831	0.09208406
611.03	0.0921503
611.229	0.09226831
611.428	0.09231727
611.627	0.09238492
611.826	0.0925182
612.025	0.09263936
612.224	0.09264931
612.422	0.09271036
612.621	0.09272036
612.82	0.09280268
613.019	0.09285036
613.218	0.09290396
613.416	0.09285728
613.615	0.09295866
613.814	0.09301091
614.012	0.09308069
614.211	0.09308444
614.41	0.0931542
614.608	0.09316045
614.807	0.0932276
615.006	0.09324917
615.204	0.09325154
615.403	0.09328298
615.602	0.09337187
615.8	0.09347374
615.999	0.09350211
616.197	0.09354573
616.396	0.0935795
616.594	0.09359281
616.793	0.0936848
616.991	0.09368988
617.19	0.09359714
617.388	0.09373146
617.586	0.09378839
617.785	0.09381776
617.983	0.09387321
618.182	0.09384697
618.38	0.09390399
618.578	0.09397938
618.777	0.09396261
618.975	0.09399511
619.173	0.09403868
619.372	0.09411149
619.57	0.09413536
619.768	0.09416667
619.966	0.0942142
620.165	0.09423935
620.363	0.09429009
620.561	0.09424352
620.759	0.09426126
620.957	0.09432771
621.155	0.0944058
621.354	0.09439505
621.552	0.09444065
621.75	0.09441313
621.948	0.09451455
622.146	0.09454141
622.344	0.09453756
622.542	0.09454206
622.74	0.09454156
622.938	0.0944469
623.136	0.09449085
623.334	0.09450032
623.532	0.09440267
623.73	0.09441121
623.928	0.09442433
624.126	0.09447076
624.324	0.09459035
624.522	0.09455865
624.719	0.0945298
624.917	0.09466056
625.115	0.09461879
625.313	0.09456683
625.511	0.09458623
625.708	0.09450724
625.906	0.0945123
626.104	0.09452815
626.302	0.09456413
626.499	0.09460279
626.697	0.09463503
626.895	0.09459286
627.093	0.09462758
627.29	0.0946667
627.488	0.09465183
627.686	0.09465869
627.883	0.09462266
628.081	0.0945837
628.278	0.09465802
628.476	0.0946635
628.673	0.09465553
628.871	0.09469704
629.068	0.09462454
629.266	0.09467
629.463	0.09466065
629.661	0.0945959
629.858	0.09454009
630.056	0.0945102
630.253	0.09442004
630.451	0.09441238
630.648	0.09433771
630.845	0.09429985
631.043	0.09430123
631.24	0.09435644
631.438	0.09430709
631.635	0.09431612
631.832	0.09429246
632.029	0.09434546
632.227	0.09437785
632.424	0.09436636
632.621	0.09431363
632.818	0.09426846
633.016	0.0942957
633.213	0.09424149
633.41	0.09419605
633.607	0.09411916
633.804	0.0940879
634.001	0.09404351
634.199	0.09410721
634.396	0.09403848
634.593	0.09399772
634.79	0.09397089
634.987	0.09398858
635.184	0.09397603
635.381	0.09401265
635.578	0.09401339
635.775	0.09400722
635.972	0.09398557
636.169	0.09397488
636.366	0.09391115
636.563	0.09384198
636.76	0.09370823
636.957	0.09364817
637.153	0.09357567
637.35	0.09355205
637.547	0.09347806
637.744	0.09343656
637.941	0.0934285
638.138	0.09345023
638.334	0.09337039
638.531	0.09335416
638.728	0.09334137
638.925	0.09330964
639.121	0.09328106
639.318	0.09324632
639.515	0.09315848
639.711	0.09316061
639.908	0.09309788
640.105	0.09305747
640.301	0.09307296
640.498	0.09305511
640.695	0.0930447
640.891	0.0930172
641.088	0.09298787
641.284	0.09295912
641.481	0.09291493
641.677	0.09281373
641.874	0.09273409
642.07	0.09266339
642.267	0.09266337
642.463	0.09260804
642.66	0.09260983
642.856	0.09253482
643.053	0.09244188
643.249	0.0924416
643.445	0.09241828
643.642	0.09233724
643.838	0.09227457
644.034	0.09218485
644.231	0.09215182
644.427	0.09217248
644.623	0.09208707
644.82	0.09203631
645.016	0.0919757
645.212	0.09189165
645.408	0.09183731
645.604	0.09183751
645.801	0.09177203
645.997	0.09171563
646.193	0.09162242
646.389	0.09162546
646.585	0.09157298
646.781	0.09156154
646.977	0.09146048
647.173	0.09139561
647.37	0.09130855
647.566	0.09129129
647.762	0.0911955
647.958	0.09117711
648.154	0.09105226
648.35	0.09099523
648.546	0.0909582
648.742	0.09097108
648.937	0.09083372
649.133	0.09081535
649.329	0.09075886
649.525	0.09071502
649.721	0.09065284
649.917	0.09060816
650.113	0.09051732
650.309	0.09053353
650.504	0.09040969
650.7	0.09029859
650.896	0.09025653
651.092	0.09019608
651.287	0.09009374
651.483	0.09008426
651.679	0.0899669
651.875	0.08998221
652.07	0.08994748
652.266	0.08989381
652.462	0.08983591
652.657	0.0897738
652.853	0.08966742
653.048	0.08964703
653.244	0.08951012
653.44	0.08941343
653.635	0.08928761
653.831	0.08922589
654.026	0.0892066
654.222	0.08913929
654.417	0.08907641
654.613	0.08904134
654.808	0.08898196
655.004	0.08894756
655.199	0.08886265
655.394	0.0887783
655.59	0.08872719
655.785	0.08864507
655.98	0.08860094
656.176	0.08855033
656.371	0.08855321
656.566	0.08853578
656.762	0.08841657
656.957	0.08832708
657.152	0.08829351
657.348	0.08818286
657.543	0.08812083
657.738	0.08803602
657.933	0.08791101
658.128	0.08786071
658.324	0.08777733
658.519	0.08767524
658.714	0.08759464
658.909	0.08753224
659.104	0.0874698
659.299	0.08739471
659.494	0.08730535
659.689	0.08727303
659.884	0.08719962
660.079	0.08713369
660.274	0.08706188
660.469	0.08698509
660.664	0.0869272
660.859	0.0868795
661.054	0.08683011
661.249	0.08675977
661.444	0.08668442
661.639	0.08661024
661.834	0.08649094
662.029	0.0864698
662.224	0.0864481
662.418	0.0863546
662.613	0.08629033
662.808	0.08623628
663.003	0.086179
663.198	0.08614875
663.392	0.0860774
663.587	0.08602119
663.782	0.08590349
663.977	0.08583495
664.171	0.08577041
664.366	0.08568437
664.561	0.08561707
664.755	0.08553309
664.95	0.08541793
665.144	0.08542043
665.339	0.08533829
665.534	0.08526447
665.728	0.08521267
665.923	0.08511913
666.117	0.08502759
666.312	0.08496567
666.506	0.0848964
666.701	0.08481636
666.895	0.08472262
667.09	0.08463215
667.284	0.08457291
667.479	0.08452076
667.673	0.08444494
667.867	0.08437129
668.062	0.08434089
668.256	0.08430166
668.45	0.08425052
668.645	0.08417942
668.839	0.08413301
669.033	0.08403601
669.228	0.0839473
669.422	0.08385764
669.616	0.08379025
669.81	0.08377166
670.004	0.08367509
670.199	0.08357598
670.393	0.08353731
670.587	0.08348089
670.781	0.08340738
670.975	0.08336695
671.169	0.0832273
671.363	0.08317619
671.558	0.08313074
671.752	0.08307289
671.946	0.08302108
672.14	0.08297494
672.334	0.08288715
672.528	0.0828848
672.722	0.08280254
672.916	0.08272889
673.11	0.08262282
673.304	0.08258072
673.497	0.08248623
673.691	0.08245196
673.885	0.08237783
674.079	0.08236712
674.273	0.08227289
674.467	0.08226037
674.661	0.08217518
674.854	0.08216141
675.048	0.08210171
675.242	0.0820384
675.436	0.08193958
675.629	0.08192386
675.823	0.08183763
676.017	0.08179431
676.211	0.081689
676.404	0.0816143
676.598	0.08151152
676.792	0.08144479
676.985	0.081406
677.179	0.08131889
677.372	0.08120767
677.566	0.08116213
677.76	0.08113138
677.953	0.08111145
678.147	0.08109073
678.34	0.08104464
678.534	0.08100085
678.727	0.08097963
678.921	0.08095541
679.114	0.08086669
679.307	0.08084153
679.501	0.08076875
679.694	0.08065302
679.888	0.08061248
680.081	0.08053551
680.274	0.08042937
680.468	0.08035503
680.661	0.08024196
680.854	0.08023832
681.048	0.08022498
681.241	0.08016162
681.434	0.08013129
681.627	0.08012307
681.821	0.08007764
682.014	0.08006066
682.207	0.07997282
682.4	0.07988649
682.593	0.07986651
682.786	0.07978873
682.98	0.07970919
683.173	0.07971414
683.366	0.07964669
683.559	0.07954383
683.752	0.07949115
683.945	0.07944932
684.138	0.0794367
684.331	0.07938506
684.524	0.07931159
684.717	0.07923236
684.91	0.07928009
685.103	0.07925025
685.296	0.07918497
685.489	0.07915267
685.682	0.07913049
685.874	0.07909362
686.067	0.0790814
686.26	0.0789935
686.453	0.07893459
686.646	0.07885189
686.839	0.07877196
687.031	0.07873093
687.224	0.07865478
687.417	0.07866816
687.61	0.07861724
687.802	0.07859524
687.995	0.07861178
688.188	0.07859588
688.38	0.07854488
688.573	0.07850869
688.766	0.07840713
688.958	0.0783263
689.151	0.07825986
689.343	0.07821098
689.536	0.07816512
689.729	0.0780913
689.921	0.07808187
690.114	0.07801328
690.306	0.07800102
690.499	0.07799755
690.691	0.07797362
690.884	0.07789276
691.076	0.07787211
691.268	0.07780449
691.461	0.0777623
691.653	0.0777388
691.846	0.07767995
692.038	0.07764159
692.23	0.07757683
692.423	0.07754837
692.615	0.07746873
692.807	0.07740135
692.999	0.07737392
693.192	0.0773231
693.384	0.07725388
693.576	0.07725576
693.768	0.07721866
693.961	0.07723727
694.153	0.07725126
694.345	0.07719968
694.537	0.07718606
694.729	0.07716437
694.921	0.07711965
695.113	0.07710934
695.305	0.07701595
695.498	0.0769188
695.69	0.07688569
695.882	0.07682126
696.074	0.07682718
696.266	0.07681262
696.458	0.0767404
696.65	0.07676069
696.842	0.07679286
697.033	0.07679022
697.225	0.07676733
697.417	0.07676175
697.609	0.07673736
697.801	0.07675303
697.993	0.07673073
698.185	0.07671823
698.376	0.07672285
698.568	0.07672334
698.76	0.07664155
698.952	0.07662401
699.144	0.0765435
699.335	0.07652425
699.527	0.07648084
699.719	0.07644452
699.91	0.07641799
700.102	0.07637423
700.294	0.07632786
700.485	0.07631489
700.677	0.07626448
700.869	0.07626125
701.06	0.07622432
701.252	0.07619288
701.443	0.07623163
701.635	0.07622384
701.826	0.0762339
702.018	0.07618767
702.209	0.07622236
702.401	0.07616882
702.592	0.07615491
702.784	0.076098
702.975	0.0760911
703.166	0.07608301
703.358	0.07609553
703.549	0.07607405
703.741	0.07608318
703.932	0.0760687
704.123	0.0760371
704.315	0.0760349
704.506	0.0760437
704.697	0.07605586
704.888	0.07601923
705.08	0.07599936
705.271	0.075977
705.462	0.07593192
705.653	0.07591755
705.844	0.07585692
706.035	0.07579995
706.227	0.07571619
706.418	0.07570137
706.609	0.0757246
706.8	0.07577443
706.991	0.07571331
707.182	0.07570758
707.373	0.07568077
707.564	0.0757029
707.755	0.07564867
707.946	0.07563026
708.137	0.07558315
708.328	0.07558654
708.519	0.07560563
708.71	0.0756249
708.901	0.07562575
709.092	0.07567382
709.283	0.0756052
709.473	0.07562025
709.664	0.07564692
709.855	0.07558805
710.046	0.07558644
710.237	0.07558638
710.427	0.07558187
710.618	0.07563144
710.809	0.07563576
711	0.07561206
711.19	0.0756294
711.381	0.07567106
711.572	0.0756327
711.762	0.07563582
711.953	0.07560242
712.144	0.07557201
712.334	0.07556117
712.525	0.07559556
712.715	0.07554727
712.906	0.0755347
713.097	0.07548327
713.287	0.07549061
713.478	0.07547707
713.668	0.07549899
713.859	0.0754371
714.049	0.07543647
714.239	0.07546748
714.43	0.07546675
714.62	0.07548694
714.811	0.07547232
715.001	0.07547875
715.191	0.07550414
715.382	0.07546741
715.572	0.07545125
715.762	0.07544994
715.953	0.07546118
716.143	0.07547175
716.333	0.07545239
716.523	0.07544915
716.714	0.07552795
716.904	0.07552965
717.094	0.07557762
717.284	0.07553014
717.474	0.07553315
717.664	0.07551511
717.855	0.07552016
718.045	0.07548379
718.235	0.07552987
718.425	0.07554414
718.615	0.07561906
718.805	0.07565692
718.995	0.07571775
719.185	0.07582094
719.375	0.07587597
719.565	0.07587741
719.755	0.0758996
719.945	0.07587624
720.135	0.07593982
720.325	0.07592796
720.515	0.07589734
720.704	0.07589523
720.894	0.07590734
721.084	0.07590296
721.274	0.0759253
721.464	0.07591658
721.654	0.07593794
721.843	0.07593352
722.033	0.07593322
722.223	0.07594019
722.413	0.07593726
722.602	0.0759629
722.792	0.07593478
722.982	0.07597993
723.171	0.07596511
723.361	0.07596789
723.55	0.07601892
723.74	0.07606283
723.93	0.07603494
724.119	0.07608039
724.309	0.07603174
724.498	0.07602539
724.688	0.07605088
724.877	0.07605509
725.067	0.07606116
725.256	0.07608058
725.446	0.07607431
725.635	0.07612795
725.825	0.07617023
726.014	0.07621409
726.203	0.07615172
726.393	0.07610715
726.582	0.07611096
726.771	0.07612854
726.961	0.07612631
727.15	0.07612606
727.339	0.07608756
727.529	0.07614308
727.718	0.07616863
727.907	0.07612008
728.096	0.07612258
728.286	0.07611861
728.475	0.07610327
728.664	0.07610204
728.853	0.07611835
729.042	0.07610644
729.231	0.07613552
729.42	0.07607376
729.609	0.07605957
729.799	0.07606089
729.988	0.07602822
730.177	0.07597095
730.366	0.07591949
730.555	0.07593858
730.744	0.07600599
730.933	0.07597312
731.122	0.07593145
731.31	0.07595456
731.499	0.07598092
731.688	0.07604824
731.877	0.07601875
732.066	0.07603031
732.255	0.07602514
732.444	0.07605601
732.632	0.07603239
732.821	0.07602598
733.01	0.07602705
733.199	0.07601704
733.388	0.07598239
733.576	0.07598621
733.765	0.07597944
733.954	0.07597392
734.142	0.07595415
734.331	0.0759483
734.52	0.07594348
734.708	0.07588074
734.897	0.07585621
735.086	0.0758552
735.274	0.07589046
735.463	0.07588338
735.651	0.07585523
735.84	0.07591896
736.028	0.07598808
736.217	0.07603915
736.405	0.07604788
736.594	0.07606424
736.782	0.0760658
736.971	0.07603777
737.159	0.07602425
737.347	0.0760016
737.536	0.07596823
737.724	0.07597492
737.912	0.07598045
738.101	0.0759836
738.289	0.07603295
738.477	0.07597296
738.666	0.07598276
738.854	0.07598414
739.042	0.07596403
739.23	0.07588987
739.418	0.07590848
739.607	0.07585949
739.795	0.07590602
739.983	0.07591383
740.171	0.07592134
740.359	0.07597395
740.547	0.07605032
740.735	0.07606596
740.923	0.07609571
741.112	0.07610805
741.3	0.07604378
741.488	0.07607597
741.676	0.07609873
741.864	0.07610416
742.052	0.07612793
742.239	0.0761277
742.427	0.07610214
742.615	0.07617088
742.803	0.07615844
742.991	0.07608306
743.179	0.07609099
743.367	0.07600314
743.555	0.07605752
743.742	0.07606745
743.93	0.07604381
744.118	0.07603592
744.306	0.07607409
744.494	0.0760325
744.681	0.07610938
744.869	0.0760753
745.057	0.07607269
745.244	0.07604888
745.432	0.07603013
745.62	0.07598884
745.807	0.07600357
745.995	0.07599661
746.182	0.0759818
746.37	0.0759732
746.558	0.07600627
746.745	0.07598003
746.933	0.07599293
747.12	0.07598021
747.308	0.07598538
747.495	0.07598797
747.683	0.07605014
747.87	0.07604625
748.057	0.07608431
748.245	0.07609238
748.432	0.07606853
748.62	0.0760294
748.807	0.07601571
748.994	0.07596615
749.182	0.07597542
749.369	0.07599462
749.556	0.07596581
749.743	0.07595183
749.931	0.07594149
750.118	0.07593553
750.305	0.0759275
750.492	0.07591364
750.68	0.07590772
750.867	0.07592316
751.054	0.07596363
751.241	0.07598174
751.428	0.07596174
751.615	0.07596819
751.802	0.07597096
751.989	0.07595629
752.176	0.07596897
752.363	0.07594512
752.55	0.07589523
752.737	0.07594184
752.924	0.07589641
753.111	0.07588942
753.298	0.07587388
753.485	0.0758199
753.672	0.07580797
753.859	0.07583517
754.046	0.07584066
754.233	0.07580899
754.42	0.07576086
754.606	0.07578048
754.793	0.07582059
754.98	0.07581197
755.167	0.07577211
755.353	0.07575344
755.54	0.07580885
755.727	0.07579412
755.914	0.07577618
756.1	0.07576319
756.287	0.07575792
756.474	0.07573128
756.66	0.07568645
756.847	0.07563716
757.033	0.07565241
757.22	0.07557057
757.407	0.07558099
757.593	0.075567
757.78	0.07562476
757.966	0.07558495
758.153	0.07559285
758.339	0.07555452
758.526	0.07557349
758.712	0.07555256
758.898	0.07551172
759.085	0.07541455
759.271	0.07541846
759.458	0.07543207
759.644	0.07546577
759.83	0.07543719
760.017	0.07538343
760.203	0.07533221
760.389	0.0753385
760.576	0.07533371
760.762	0.07530793
760.948	0.07526795
761.134	0.07530636
761.32	0.07532928
761.507	0.07534729
761.693	0.07538217
761.879	0.07539934
762.065	0.07535161
762.251	0.07533941
762.437	0.07531342
762.623	0.07528278
762.809	0.07529135
762.995	0.07528098
763.181	0.07520424
763.367	0.07518686
763.553	0.07518447
763.739	0.07519128
763.925	0.07520639
764.111	0.07522163
764.297	0.07520076
764.483	0.07519151
764.669	0.07513013
764.855	0.07504104
765.041	0.07498114
765.227	0.0749093
765.412	0.07488857
765.598	0.07483555
765.784	0.07481655
765.97	0.07486331
766.156	0.07491752
766.341	0.07494239
766.527	0.07493698
766.713	0.07486067
766.898	0.07487885
767.084	0.07486281
767.27	0.0748297
767.455	0.07479946
767.641	0.07475655
767.827	0.07474711
768.012	0.07474219
768.198	0.0747238
768.383	0.07474641
768.569	0.07476578
768.754	0.07474
768.94	0.07467068
769.125	0.07460986
769.311	0.07458716
769.496	0.07452831
769.682	0.07448798
769.867	0.07444359
770.052	0.07447854
770.238	0.0745108
770.423	0.07452195
770.608	0.07448196
770.794	0.07444185
770.979	0.07438786
771.164	0.07429717
771.35	0.07417923
771.535	0.0740809
771.72	0.07405735
771.905	0.07408407
772.09	0.07407034
772.276	0.07404279
772.461	0.07403986
772.646	0.0740086
772.831	0.0739956
773.016	0.07391804
773.201	0.07384171
773.386	0.07378936
773.571	0.07375189
773.756	0.07371639
773.941	0.07373773
774.126	0.07374253
774.311	0.07369394
774.496	0.07368348
774.681	0.07364703
774.866	0.073626
775.051	0.07360504
775.236	0.0734851
775.421	0.07338916
775.606	0.07337541
775.791	0.07326915
775.976	0.073234
776.16	0.07319034
776.345	0.0731219
776.53	0.07313632
776.715	0.07318128
776.899	0.07311182
777.084	0.07313835
777.269	0.07311733
777.454	0.07306673
777.638	0.07301489
777.823	0.07294972
778.008	0.07278612
778.192	0.07277034
778.377	0.07271412
778.561	0.07267579
778.746	0.07261709
778.931	0.07262317
779.115	0.07264225
779.3	0.07262515
779.484	0.07254519
779.669	0.07252381
779.853	0.07241846
780.037	0.07239926
780.222	0.07236882
780.406	0.07224167
780.591	0.07224536
780.775	0.07224637
780.959	0.07217073
781.144	0.07218177
781.328	0.07211853
781.512	0.0720542
781.697	0.07201313
781.881	0.07196183
782.065	0.07185304
782.249	0.07183462
782.434	0.07179244
782.618	0.07180642
782.802	0.07178615
782.986	0.07176993
783.17	0.07172224
783.354	0.07171711
783.539	0.07162311
783.723	0.07151773
783.907	0.07135325
784.091	0.07124999
784.275	0.07119794
784.459	0.07112052
784.643	0.07108815
784.827	0.07106309
785.011	0.07101488
785.195	0.07104403
785.379	0.07100583
785.563	0.07092252
785.747	0.07085872
785.93	0.07081458
786.114	0.07069666
786.298	0.07063057
786.482	0.07055804
786.666	0.07045357
786.85	0.07040514
787.033	0.07041108
787.217	0.07031575
787.401	0.07034472
787.585	0.07028719
787.768	0.07020872
787.952	0.07018143
788.136	0.07010988
788.319	0.07000732
788.503	0.06993828
788.687	0.06978379
788.87	0.06972337
789.054	0.06966911
789.237	0.06964298
789.421	0.06957028
789.605	0.06952035
789.788	0.06944027
789.972	0.06946551
790.155	0.06945193
790.338	0.06934486
790.522	0.06926129
790.705	0.06920558
790.889	0.06908861
791.072	0.0690047
791.256	0.06892014
791.439	0.06880747
791.622	0.06884733
791.806	0.06880893
791.989	0.06874966
792.172	0.06877127
792.355	0.06873181
792.539	0.06863797
792.722	0.06854851
792.905	0.06838631
793.088	0.06824343
793.271	0.06818251
793.455	0.06807949
793.638	0.06802588
793.821	0.06796504
794.004	0.06796704
794.187	0.06792634
794.37	0.0679025
794.553	0.06784056
794.736	0.06775187
794.919	0.06768096
795.102	0.06761101
795.285	0.0675038
795.468	0.06745192
795.651	0.06736911
795.834	0.06727752
796.017	0.06722327
796.2	0.06716846
796.383	0.06713166
796.566	0.06707562
796.749	0.06699045
796.931	0.06691074
797.114	0.06682894
797.297	0.06674268
797.48	0.06665579
797.663	0.06650769
797.845	0.06647322
798.028	0.06641051
798.211	0.0663927
798.393	0.06633579
798.576	0.06623113
798.759	0.06615472
798.941	0.06608546
799.124	0.06599793
799.307	0.06591551
799.489	0.06583896
799.672	0.06579733
799.854	0.06570676
800.037	0.06561933
800.219	0.06557515
800.402	0.0655166
800.584	0.0654532
800.767	0.06535086
800.949	0.06521589
801.132	0.06516265
801.314	0.06506181
801.496	0.06499088
801.679	0.06487046
801.861	0.06479811
802.043	0.06467746
802.226	0.0646343
802.408	0.06456551
802.59	0.06453422
802.772	0.06442697
802.955	0.06435455
803.137	0.06426764
803.319	0.06425864
803.501	0.06415078
803.684	0.06406467
803.866	0.06397976
804.048	0.06390432
804.23	0.0637929
804.412	0.06368904
804.594	0.06356814
804.776	0.0635822
804.958	0.06355615
805.14	0.06351369
805.322	0.06350888
805.504	0.06352311
805.686	0.06348751
805.868	0.06338695
806.05	0.06328012
806.232	0.06320791
806.414	0.06312485
806.596	0.06302411
806.778	0.06288829
806.96	0.06285227
807.141	0.06280775
807.323	0.06271672
807.505	0.06258749
807.687	0.06250035
807.869	0.06244861
808.05	0.06235474
808.232	0.06222151
808.414	0.0621127
808.595	0.06202641
808.777	0.06195188
808.959	0.0619017
809.14	0.0617884
809.322	0.06174985
809.504	0.06163046
809.685	0.06154193
809.867	0.06143867
810.048	0.06137963
810.23	0.06124856
810.411	0.06112282
810.593	0.06097305
810.774	0.060859
810.956	0.0607912
811.137	0.06067681
811.319	0.06057818
811.5	0.06047494
811.681	0.0604072
811.863	0.06039713
812.044	0.06040911
812.225	0.06034118
812.407	0.06034155
812.588	0.06023283
812.769	0.06015587
812.951	0.06003785
813.132	0.05990154
813.313	0.05976137
813.494	0.05966284
813.675	0.05947484
813.857	0.05939457
814.038	0.05935276
814.219	0.05931324
814.4	0.05924827
814.581	0.05924396
814.762	0.05917547
814.943	0.05916504
815.124	0.05905924
815.305	0.05890007
815.486	0.05877832
815.667	0.05865642
815.848	0.05846935
816.029	0.05833734
816.21	0.05821375
816.391	0.05815407
816.572	0.05807557
816.753	0.05805908
816.934	0.05799991
817.115	0.05794674
817.295	0.05789663
817.476	0.05781924
817.657	0.0576492
817.838	0.05756163
818.019	0.05733973
818.199	0.05718792
818.38	0.05708894
818.561	0.05690703
818.741	0.05686642
818.922	0.05680742
819.103	0.05669473
819.283	0.05666866
819.464	0.05660008
819.645	0.05652557
819.825	0.05644227
820.006	0.05621384
820.186	0.05615188
820.367	0.05608336
820.547	0.05592893
820.728	0.05587213
820.908	0.05576084
821.089	0.05572163
821.269	0.05571905
821.45	0.05557606
821.63	0.05554878
821.81	0.05553796
821.991	0.05538366
822.171	0.05526513
822.351	0.05521796
822.532	0.05507962
822.712	0.05497715
822.892	0.0548127
823.072	0.0546673
823.253	0.0546109
823.433	0.05455019
823.613	0.05438153
823.793	0.05429387
823.973	0.05425465
824.154	0.05419764
824.334	0.05414903
824.514	0.05409107
824.694	0.05394489
824.874	0.05382247
825.054	0.05376011
825.234	0.05362717
825.414	0.05342238
825.594	0.05327481
825.774	0.05311718
825.954	0.05312489
826.134	0.05308949
826.314	0.05295213
826.494	0.05293968
826.674	0.05290642
826.854	0.05279419
827.033	0.052673
827.213	0.05250185
827.393	0.05240543
827.573	0.05228826
827.753	0.05213955
827.932	0.05199907
828.112	0.05193654
828.292	0.05190766
828.472	0.05179497
828.651	0.05170726
828.831	0.05161027
829.011	0.05151328
829.19	0.05139973
829.37	0.051294
829.549	0.0510776
829.729	0.05092057
829.909	0.05071115
830.088	0.05060695
830.268	0.05051266
830.447	0.05045348
830.627	0.05033755
830.806	0.05033136
830.986	0.05030947
831.165	0.05030111
831.344	0.05024431
831.524	0.05007161
831.703	0.05000287
831.883	0.04981453
832.062	0.04965508
832.241	0.04948756
832.421	0.0493248
832.6	0.04916793
832.779	0.0491309
832.958	0.04898081
833.138	0.04891604
833.317	0.04881021
833.496	0.0487204
833.675	0.04865882
833.854	0.04849743
834.034	0.04838046
834.213	0.04831568
834.392	0.04826323
834.571	0.04817015
834.75	0.04809459
834.929	0.04794766
835.108	0.04790193
835.287	0.04780978
835.466	0.04767293
835.645	0.04750271
835.824	0.04739991
836.003	0.04726019
836.182	0.04717294
836.361	0.04707099
836.54	0.04688944
836.719	0.04680002
836.897	0.04672034
837.076	0.04658073
837.255	0.04648571
837.434	0.04633901
837.613	0.04621063
837.791	0.04611394
837.97	0.04602077
838.149	0.04594642
838.328	0.04596802
838.506	0.04587746
838.685	0.04585917
838.864	0.04581762
839.042	0.04578585
839.221	0.04560415
839.4	0.04554111
839.578	0.0453092
839.757	0.04514701
839.935	0.04497161
840.114	0.04483741
840.292	0.04484092
840.471	0.04485734
840.649	0.04474923
840.828	0.04470679
841.006	0.04468927
841.185	0.04461259
841.363	0.04453439
841.541	0.04433457
841.72	0.04421129
841.898	0.04408547
842.076	0.04392498
842.255	0.04382434
842.433	0.04367074
842.611	0.04358874
842.789	0.04343512
842.968	0.04327429
843.146	0.04324342
843.324	0.04326376
843.502	0.04317281
843.68	0.04318078
843.859	0.04304763
844.037	0.04298329
844.215	0.04294646
844.393	0.04281373
844.571	0.04264593
844.749	0.04252848
844.927	0.04244102
845.105	0.04235815
845.283	0.04231435
845.461	0.04220036
845.639	0.04210127
845.817	0.04204555
845.995	0.04198332
846.173	0.04191004
846.351	0.04193535
846.529	0.04179881
846.706	0.04162939
846.884	0.04153222
847.062	0.04136898
847.24	0.04126727
847.418	0.04106378
847.595	0.0408721
847.773	0.04076081
847.951	0.04071868
848.129	0.04058913
848.306	0.04057485
848.484	0.04048523
848.662	0.04046529
848.839	0.04039042
849.017	0.04026738
849.194	0.04018701
849.372	0.04011141
849.549	0.03994245
849.727	0.03976158
849.905	0.03957492
850.082	0.03944277
850.26	0.03939261
850.437	0.03927239
850.614	0.0391867
850.792	0.03912189
850.969	0.03903122
851.147	0.03901284
851.324	0.03900182
851.501	0.03889918
851.679	0.03876465
851.856	0.03862712
852.033	0.03848847
852.211	0.03834936
852.388	0.03814899
852.565	0.037972
852.742	0.03782424
852.92	0.03775447
853.097	0.03760119
853.274	0.03752199
853.451	0.03748371
853.628	0.03745404
853.805	0.03738387
853.982	0.03730835
854.159	0.03719189
854.336	0.03715147
854.514	0.03709834
854.691	0.0369077
854.868	0.03675918
855.045	0.03657133
855.221	0.03648075
855.398	0.03641337
855.575	0.0362912
855.752	0.03610906
855.929	0.03609582
856.106	0.03607837
856.283	0.03605742
856.46	0.03591626
856.637	0.03588238
856.813	0.03580621
856.99	0.03577543
857.167	0.03567631
857.344	0.03553845
857.52	0.03532196
857.697	0.03522857
857.874	0.03507699
858.05	0.03494277
858.227	0.03481941
858.404	0.0347075
858.58	0.0346697
858.757	0.03465524
858.933	0.03459771
859.11	0.03452243
859.287	0.03446385
859.463	0.034328
859.64	0.03420732
859.816	0.0340229
859.993	0.03388603
860.169	0.03371676
860.345	0.03358286
860.522	0.03355886
860.698	0.03349333
860.875	0.03343508
861.051	0.03334858
861.227	0.03334561
861.404	0.03338571
861.58	0.03332222
861.756	0.03314813
861.932	0.03308618
862.109	0.03298792
862.285	0.03290089
862.461	0.03272561
862.637	0.03251109
862.813	0.03237211
862.99	0.03223455
863.166	0.0320863
863.342	0.03207454
863.518	0.03196839
863.694	0.03200686
863.87	0.03197772
864.046	0.03190976
864.222	0.03185154
864.398	0.03182812
864.574	0.03169151
864.75	0.03162492
864.926	0.03141369
865.102	0.03134755
865.278	0.03126392
865.454	0.03120197
865.63	0.03110745
865.805	0.03104459
865.981	0.03096035
866.157	0.0308418
866.333	0.03076347
866.509	0.03063281
866.684	0.03056142
866.86	0.03054651
867.036	0.03044633
867.212	0.03039089
867.387	0.03038421
867.563	0.03017864
867.739	0.03007827
867.914	0.02998201
868.09	0.02983242
868.265	0.02969159
868.441	0.02956001
868.617	0.02942613
868.792	0.02947333
868.968	0.02944458
869.143	0.02940844
869.319	0.02930174
869.494	0.02925355
869.67	0.02922667
869.845	0.02916824
870.02	0.02904872
870.196	0.02896458
870.371	0.02884492
870.546	0.02876474
870.722	0.02869338
870.897	0.02857364
871.072	0.02847485
871.248	0.02830661
871.423	0.02821057
871.598	0.02800158
871.773	0.02786974
871.949	0.02774986
872.124	0.02770658
872.299	0.02769872
872.474	0.02772362
872.649	0.02765703
872.824	0.02765893
872.999	0.02755263
873.174	0.02742373
873.349	0.02718707
873.524	0.02695488
873.699	0.02679886
873.874	0.02664687
874.049	0.02658821
874.224	0.02661142
874.399	0.0265793
874.574	0.02670877
874.749	0.02672278
874.924	0.02667264
875.099	0.02667462
875.274	0.02656106
875.449	0.02638275
875.623	0.02631086
875.798	0.02606067
875.973	0.02597485
876.148	0.02583725
876.322	0.02570648
876.497	0.02562411
876.672	0.02556892
876.846	0.02551936
877.021	0.02547729
877.196	0.02544606
877.37	0.02540126
877.545	0.02538724
877.72	0.02535142
877.894	0.02529952
878.069	0.02509408
878.243	0.02504065
878.418	0.02481258
878.592	0.02467228
878.767	0.02449414
878.941	0.02430379
879.116	0.02409325
879.29	0.02412041
879.464	0.02392937
879.639	0.02381001
879.813	0.02379536
879.987	0.02377559
880.162	0.02386427
880.336	0.02395207
880.51	0.02381798
880.685	0.02387554
880.859	0.02397892
881.033	0.02384294
881.207	0.02371326
881.381	0.02352937
881.556	0.02333777
881.73	0.02320573
881.904	0.0230696
882.078	0.02295562
882.252	0.02292263
882.426	0.02296516
882.6	0.02296823
882.774	0.02297442
882.948	0.02303271
883.122	0.02305964
883.296	0.02295263
883.47	0.02286936
883.644	0.02268379
883.818	0.02257333
883.992	0.0224354
884.166	0.02222407
884.34	0.02202419
884.514	0.02191389
884.687	0.02194234
884.861	0.02189288
885.035	0.02177485
885.209	0.02176281
885.382	0.02190003
885.556	0.02197226
885.73	0.02200021
885.904	0.02186386
886.077	0.02182253
886.251	0.02175901
886.425	0.02162249
886.598	0.021318
886.772	0.0210274
886.945	0.02091742
887.119	0.02079324
887.292	0.02065737
887.466	0.02063971
887.64	0.02061545
887.813	0.020697
887.986	0.02079495
888.16	0.02070505
888.333	0.02059968
888.507	0.0205143
888.68	0.02037859
888.854	0.02032284
889.027	0.02014679
889.2	0.02000797
889.374	0.01989044
889.547	0.01974784
889.72	0.01958966
889.893	0.01954446
890.067	0.01943562
890.24	0.01942997
890.413	0.01928282
890.586	0.01923572
890.759	0.01927739
890.933	0.01940464
891.106	0.0193947
891.279	0.01948159
891.452	0.0194466
891.625	0.01948958
891.798	0.01940885
891.971	0.01935106
892.144	0.0191045
892.317	0.01895298
892.49	0.01866691
892.663	0.01856269
892.836	0.01853066
893.009	0.01849709
893.182	0.01844673
893.355	0.01850033
893.527	0.01851183
893.7	0.01855385
893.873	0.01860791
894.046	0.01851825
894.219	0.01851147
894.391	0.01855228
894.564	0.01845241
894.737	0.018279
894.91	0.01810767
895.082	0.01790086
895.255	0.01774767
895.428	0.01758461
895.6	0.01736292
895.773	0.01731156
895.945	0.01731244
896.118	0.01739137
896.291	0.01733136
896.463	0.01744918
896.636	0.01738012
896.808	0.01740685
896.981	0.01741529
897.153	0.01739991
897.326	0.01734147
897.498	0.01726563
897.67	0.01710728
897.843	0.01703688
898.015	0.01694046
898.187	0.01673807
898.36	0.01651494
898.532	0.01634925
898.704	0.01637952
898.877	0.01639888
899.049	0.01632301
899.221	0.01630798
899.393	0.01630685
899.566	0.01637587
899.738	0.01637785
899.91	0.01636487
900.082	0.01617838
900.254	0.01620467
900.426	0.01610404
900.598	0.01605785
900.77	0.01590906
900.942	0.01578507
901.114	0.01569041
901.286	0.01573869
901.458	0.01563075
901.63	0.01559756
901.802	0.01552549
901.974	0.01544286
902.146	0.01539839
902.318	0.01530248
902.49	0.01519555
902.662	0.01508274
902.834	0.01504684
903.005	0.01512591
903.177	0.01518962
903.349	0.01510692
903.521	0.01505459
903.693	0.01495652
903.864	0.01488776
904.036	0.01485806
904.208	0.01469764
904.379	0.01460586
904.551	0.01463824
904.723	0.01458405
904.894	0.01459279
905.066	0.01468439
905.237	0.0146691
905.409	0.01455964
905.58	0.01451515
905.752	0.01450889
905.923	0.0144753
906.095	0.01430451
906.266	0.01418185
906.438	0.01399037
906.609	0.01393748
906.78	0.01381432
906.952	0.01370446
907.123	0.01351719
907.295	0.01355243
907.466	0.01354252
907.637	0.01347667
907.808	0.01351602
907.98	0.01355051
908.151	0.01353107
908.322	0.01355107
908.493	0.01355263
908.665	0.01361648
908.836	0.01356251
909.007	0.01348318
909.178	0.01336086
909.349	0.01334785
909.52	0.0132756
909.691	0.01315674
909.862	0.01290043
910.033	0.01294808
910.204	0.01286486
910.375	0.01296844
910.546	0.01283013
910.717	0.0128516
910.888	0.01269346
911.059	0.01274972
911.23	0.01274197
911.401	0.0128415
911.572	0.01277972
911.742	0.01267589
911.913	0.01261867
912.084	0.01261015
912.255	0.01246079
912.426	0.0123763
912.596	0.01207584
912.767	0.01186679
912.938	0.01191525
913.108	0.0118247
913.279	0.0118712
913.45	0.01188261
913.62	0.01175391
913.791	0.01190189
913.962	0.01194282
914.132	0.01187447
914.303	0.01175832
914.473	0.01174752
914.644	0.01170805
914.814	0.01164961
914.985	0.01149046
915.155	0.01146012
915.326	0.01143992
915.496	0.01155728
915.666	0.01145247
915.837	0.01130961
916.007	0.0113227
916.177	0.01139205
916.348	0.01133435
916.518	0.01128925
916.688	0.01120046
916.858	0.01115068
917.029	0.01121591
917.199	0.01108182
917.369	0.01102429
917.539	0.01098565
917.709	0.01089255
917.88	0.01079805
918.05	0.01076485
918.22	0.01069863
918.39	0.01075733
918.56	0.0106032
918.73	0.0105805
918.9	0.01052787
919.07	0.01048432
919.24	0.0103384
919.41	0.01029911
919.58	0.01025089
919.75	0.0103203
919.92	0.01030948
920.09	0.0102887
920.26	0.01029045
920.429	0.01047028
920.599	0.01034223
920.769	0.01021448
920.939	0.01009316
921.109	0.0099574
921.278	0.00982964
921.448	0.00958862
921.618	0.00943542
921.787	0.00950614
921.957	0.00952227
922.127	0.00945673
922.296	0.00942506
922.466	0.00950581
922.636	0.00964942
922.805	0.00970783
922.975	0.00964851
923.144	0.00959803
923.314	0.00971192
923.483	0.00973704
923.653	0.00961254
923.822	0.00959035
923.992	0.00938695
924.161	0.00936883
924.331	0.00927101
924.5	0.0092229
924.669	0.009148
924.839	0.00904812
925.008	0.00908562
925.177	0.00915846
925.347	0.0091278
925.516	0.00919221
925.685	0.00908653
925.854	0.0089946
926.023	0.00911574
926.193	0.00907709
926.362	0.00899404
926.531	0.00890794
926.7	0.00879755
926.869	0.00880078
927.038	0.00875137
927.207	0.00855934
927.376	0.00833314
927.545	0.00825409
927.715	0.00823862
927.884	0.00836352
928.052	0.00829163
928.221	0.00840527
928.39	0.00847923
928.559	0.00851513
928.728	0.00866791
928.897	0.00871643
929.066	0.00865529
929.235	0.00866475
929.404	0.00857121
929.572	0.00853113
929.741	0.00858179
929.91	0.00836201
930.079	0.00844797
930.247	0.00851043
930.416	0.00833104
930.585	0.0082532
930.753	0.00820845
930.922	0.00818512
931.091	0.00822539
931.259	0.00800106
931.428	0.00774454
931.596	0.00770637
931.765	0.00773206
931.934	0.00779172
932.102	0.00777878
932.27	0.00778461
932.439	0.00794024
932.607	0.00807822
932.776	0.00806453
932.944	0.00795228
933.113	0.00785542
933.281	0.00776169
933.449	0.00760546
933.618	0.00752083
933.786	0.00746346
933.954	0.00751781
934.123	0.00762123
934.291	0.00761088
934.459	0.00762872
934.627	0.00769289
934.795	0.00771068
934.964	0.0078064
935.132	0.00791721
935.3	0.00775579
935.468	0.00791349
935.636	0.00790909
935.804	0.00809542
935.972	0.00777146
936.14	0.00768438
936.308	0.00783057
936.476	0.0081315
936.644	0.00806266
936.812	0.00800334
936.98	0.00797295
937.148	0.00834775
937.316	0.00810491
937.484	0.00785136
937.652	0.00782549
937.82	0.00784294
937.987	0.00792878
938.155	0.00777346
938.323	0.00763941
938.491	0.00808753
938.658	0.00847606
938.826	0.00841451
938.994	0.00880639
939.162	0.00908147
939.329	0.00929246
939.497	0.00925611
939.665	0.0093269
939.832	0.00882963
940	0.00872223
940.167	0.00844289
940.335	0.00869259
940.502	0.00871925
940.67	0.00896348
940.837	0.00878893
941.005	0.00917754
941.172	0.01028855
941.34	0.01045344
941.507	0.00989746
941.674	0.01021467
941.842	0.0101671
942.009	0.01026401
942.177	0.0098905
942.344	0.00872172
942.511	0.00862788
942.678	0.00925264
942.846	0.00939438
943.013	0.00947156
943.18	0.00932615
943.347	0.00963158
943.514	0.00983771
943.682	0.01023571
943.849	0.01033197
944.016	0.01010203
944.183	0.0105528
944.35	0.01079933
944.517	0.01073372
944.684	0.01087338
944.851	0.01062
945.018	0.01016251
945.185	0.01011139
945.352	0.01021853
945.519	0.01081915
945.686	0.0114826
945.853	0.01058386
946.02	0.01034132
946.187	0.01100986
946.353	0.01031318
946.52	0.00971691
946.687	0.0094274
946.854	0.00955989
947.021	0.01007363
947.187	0.00949424
947.354	0.00840604
947.521	0.00872344
947.687	0.00916816
947.854	0.00867061
948.021	0.00843288
948.187	0.00854512
948.354	0.00812667
948.52	0.00835835
948.687	0.00820971
948.854	0.00763175
949.02	0.00736081
949.187	0.00700254
949.353	0.00643775
949.52	0.00653656
949.686	0.00608002
949.852	0.00653465
950.019	0.00633076
950.185	0.00607157
950.352	0.00628473
950.518	0.00720662
950.684	0.00765775
950.851	0.00774599
951.017	0.00741093
951.183	0.00751317
951.349	0.00803607
951.516	0.00753207
951.682	0.00687266
951.848	0.00675701
952.014	0.00636287
952.18	0.00617026
952.346	0.00620453
952.512	0.00586803
952.679	0.00631113
952.845	0.00631742
953.011	0.00659494
953.177	0.00698103
953.343	0.0069252
953.509	0.00694488
953.675	0.0068638
953.841	0.00650409
954.007	0.00679615
954.172	0.00684047
954.338	0.00678458
954.504	0.00666583
954.67	0.00652682
954.836	0.00646222
955.002	0.00570723
955.167	0.00573569
955.333	0.00526259
955.499	0.00547378
955.665	0.00524557
955.83	0.00486884
955.996	0.00514399
956.162	0.00530387
956.327	0.0054004
956.493	0.00566966
956.659	0.00563957
956.824	0.00578288
956.99	0.00593577
957.155	0.00594115
957.321	0.00590875
957.486	0.00552173
957.652	0.00512946
957.817	0.00492549
957.983	0.0052018
958.148	0.00551196
958.314	0.00508256
958.479	0.00552017
958.644	0.00543476
958.81	0.00543015
958.975	0.00543772
959.14	0.00532272
959.306	0.00469535
959.471	0.00452627
959.636	0.00422492
959.801	0.00417664
959.967	0.00425192
960.132	0.00418281
960.297	0.00421363
960.462	0.00450606
960.627	0.00480154
960.792	0.00521719
960.957	0.00514281
961.123	0.00493502
961.288	0.00484933
961.453	0.00464508
961.618	0.00445722
961.783	0.00424065
961.948	0.00381017
962.113	0.00371232
962.277	0.00358806
962.442	0.00375434
962.607	0.00345832
962.772	0.00389616
962.937	0.00350228
963.102	0.00349659
963.267	0.00375208
963.431	0.00387587
963.596	0.00347142
963.761	0.00376878
963.926	0.00320849
964.09	0.00370932
964.255	0.00367098
964.42	0.00376155
964.584	0.00333338
964.749	0.00307786
964.914	0.003108
965.078	0.00320194
965.243	0.0027523
965.407	0.00253816
965.572	0.00221614
965.736	0.00300482
965.901	0.00347605
966.065	0.00335881
966.23	0.00366621
966.394	0.00408764
966.559	0.0042692
966.723	0.00431693
966.887	0.00373731
967.052	0.00359213
967.216	0.00370502
967.38	0.0032282
967.545	0.00326824
967.709	0.00329616
967.873	0.00320483
968.037	0.00334971
968.202	0.00339523
968.366	0.00317468
968.53	0.0034874
968.694	0.0034455
968.858	0.00346049
969.022	0.00318101
969.187	0.00332063
969.351	0.00311573
969.515	0.00334938
969.679	0.00342318
969.843	0.00331068
970.007	0.00340077
970.171	0.00346028
970.335	0.00326284
970.499	0.00347275
970.662	0.00318987
970.826	0.00318803
970.99	0.00316591
971.154	0.00305281
971.318	0.00337558
971.482	0.00358468
971.645	0.00352735
971.809	0.00349387
971.973	0.00301032
972.137	0.00269966
972.3	0.00211936
972.464	0.00210472
972.628	0.00214797
972.791	0.002244
972.955	0.00213375
973.119	0.00207814
973.282	0.00255678
973.446	0.00294462
973.609	0.0026657
973.773	0.00261521
973.936	0.00258127
974.1	0.00285112
974.263	0.00278242
974.427	0.00248328
974.59	0.00253605
974.754	0.00311961
974.917	0.00303724
975.08	0.00295496
975.244	0.00291949
975.407	0.00329271
975.57	0.00333142
975.734	0.00336837
975.897	0.00280105
976.06	0.00294338
976.223	0.00299807
976.387	0.00292941
976.55	0.00284778
976.713	0.00272798
976.876	0.00308064
977.039	0.00313931
977.202	0.00322438
977.365	0.00327553
977.528	0.00331452
977.692	0.00362461
977.855	0.00362173
978.018	0.00327489
978.181	0.00335073
978.344	0.00324761
978.506	0.00351679
978.669	0.00371987
978.832	0.00342481
978.995	0.00326983
979.158	0.00367982
979.321	0.00352485
979.484	0.0034914
979.646	0.00332699
979.809	0.00302427
979.972	0.0033599
980.135	0.00433461
980.297	0.00392774
980.46	0.00417264
980.623	0.00436803
980.786	0.00421117
980.948	0.00436428
981.111	0.00472239
981.273	0.00418219
981.436	0.00454116
981.599	0.00460373
981.761	0.00364642
981.924	0.00345655
982.086	0.00340025
982.249	0.00256506
982.411	0.00259173
982.573	0.00219557
982.736	0.00205853
982.898	0.00262943
983.061	0.00297575
983.223	0.00262513
983.385	0.00324791
983.548	0.00341958
983.71	0.00337199
983.872	0.00280414
984.034	0.00255097
984.197	0.00271767
984.359	0.00341002
984.521	0.00307248
984.683	0.00255561
984.845	0.0029416
985.008	0.00395719
985.17	0.00421558
985.332	0.00402164
985.494	0.0033004
985.656	0.00342085
985.818	0.00323358
985.98	0.00319626
986.142	0.00276006
986.304	0.00270587
986.466	0.00267671
986.628	0.00258524
986.79	0.00260908
986.952	0.00281902
987.113	0.00287425
987.275	0.00251188
987.437	0.00281202
987.599	0.00260416
987.761	0.00311905
987.922	0.00301743
988.084	0.0034158
988.246	0.00339326
988.408	0.00347085
988.569	0.00362298
988.731	0.00358793
988.893	0.00346665
989.054	0.00362575
989.216	0.0033698
989.377	0.00289588
989.539	0.00287231
989.701	0.00247329
989.862	0.00209085
990.024	0.00219783
990.185	0.00150823
990.347	0.00167143
990.508	0.00146931
990.669	0.00188211
990.831	0.00174082
990.992	0.00244802
991.154	0.00167639
991.315	0.00189763
991.476	0.00133938
991.638	0.00124291
991.799	0.00096274
991.96	0.00141777
992.121	0.00112986
992.283	0.00163242
992.444	0.00265903
992.605	0.00300377
992.766	0.00361772
992.927	0.00334037
993.088	0.00282908
993.249	0.00323084
993.41	0.00321669
993.572	0.00256952
993.733	0.00285919
993.894	0.002448
994.055	0.00338346
994.216	0.00431192
994.376	0.00404507
994.537	0.00395746
994.698	0.00345487
994.859	0.00354129
995.02	0.00334395
995.181	0.00307044
995.342	0.0020349
995.503	0.00172319
995.663	0.00270155
995.824	0.00364202
995.985	0.00374211
996.146	0.00329616
996.306	0.00298076
996.467	0.00359701
996.628	0.00376526
996.788	0.00359144
996.949	0.00295181
997.11	0.00261639
997.27	0.00369919
997.431	0.00432345
997.591	0.00430016
997.752	0.00397559
997.912	0.00331348
998.073	0.00333482
998.233	0.00325629
998.394	0.0030465
998.554	0.00290189
998.714	0.00297641
998.875	0.00353806
999.035	0.00391559
999.196	0.00366256
999.356	0.00367843
999.516	0.00354932
999.676	0.00271531
999.837	0.00206448
999.997	0.00200086
1000.157	0.00155362
1000.317	0.00221237
1000.477	0.00287296
1000.638	0.00449175
1000.798	0.00469413
1000.958	0.00468809
1001.118	0.00492007
1001.278	0.00466887
1001.438	0.00427831
1001.598	0.00351612
1001.758	0.00271108
1001.918	0.0026205
1002.078	0.00282927
1002.238	0.00316421
1002.398	0.00411063
1002.558	0.00441666
1002.718	0.00426948
1002.878	0.00454515
1003.037	0.0055938
1003.197	0.00626865
1003.357	0.00592149
1003.517	0.00656062
1003.677	0.00499744
1003.836	0.00592082
1003.996	0.00531663
1004.156	0.0046542
1004.315	0.00519801
1004.475	0.00494266
1004.635	0.00351669
1004.794	0.00508874
1004.954	0.00506388
1005.114	0.00488247
1005.273	0.00529586
1005.433	0.00416375
1005.592	0.005593
1005.752	0.00621277
1005.911	0.00581905
1006.071	0.00661005
1006.23	0.0067832
1006.389	0.0063732
1006.549	0.00718616
1006.708	0.00616679
1006.868	0.00676054
1007.027	0.00691016
1007.186	0.00557466
1007.345	0.00564853
1007.505	0.00610041
1007.664	0.00485921
1007.823	0.00395321
1007.982	0.0040107
1008.142	0.00511461
1008.301	0.00461747
1008.46	0.00486436
1008.619	0.00384115
1008.778	0.00467321
1008.937	0.003914
1009.096	0.00178871
1009.255	0.00102797
1009.414	0.00289651
1009.573	0.0028784
1009.732	0.00378365
1009.891	0.00387162
1010.05	0.00506116
1010.209	0.00653319
1010.368	0.00566513
1010.527	0.0032792
1010.686	0.00398069
1010.845	0.00469673
1011.003	0.00449305
1011.162	0.00616061
1011.321	0.00563
1011.48	0.00727038
1011.638	0.0087295
1011.797	0.00822897
1011.956	0.00770801
1012.115	0.00766652
1012.273	0.00533991
1012.432	0.00603797
1012.59	0.00485567
1012.749	0.00647351
1012.908	0.0055215
1013.066	0.00583307
1013.225	0.00477582
1013.383	0.00576742
1013.542	0.00521465
1013.7	0.00512975
1013.859	0.00343714
1014.017	0.00351522
1014.175	0.00260441
1014.334	0.00361374
1014.492	0.00387285
1014.65	0.00515288
1014.809	0.00631154
1014.967	0.00702681
1015.125	0.00556583
1015.284	0.00556666
1015.442	0.00717923
1015.6	0.00767201
1015.758	0.00714599
1015.916	0.00661192
1016.075	0.00650736
1016.233	0.0084943
1016.391	0.00967257
1016.549	0.00992052
1016.707	0.01102117
1016.865	0.0125727
1017.023	0.01288277
1017.181	0.01123596
1017.339	0.01142968
1017.497	0.01140889
1017.655	0.00941818
1017.813	0.00735359
1017.971	0.00547637
1018.129	0.00473453
1018.286	0.00649992
1018.444	0.00717282
1018.602	0.0070177
1018.76	0.00731411
1018.918	0.00783802
1019.075	0.00686745
1019.233	0.00729023
1019.391	0.00547655
1019.549	0.00716172
1019.706	0.00640949
1019.864	0.00869999
1020.022	0.00974989
1020.179	0.01183743
1020.337	0.01066015
1020.494	0.01170277
1020.652	0.01201755
1020.809	0.01369468
1020.967	0.01260335
1021.124	0.01204174
1021.282	0.01214047
1021.439	0.0153359
1021.597	0.01648285
1021.754	0.01143343
1021.911	0.01099815
1022.069	0.00716645
1022.226	0.00387684
1022.384	0.00386215
1022.541	0.00350899
1022.698	0.00322003
1022.855	0.0025193
1023.013	0.00002408
1023.17	0.00348989
1023.327	0.00858619
1023.484	0.00985573
1023.641	0.01074635
1023.798	0.01099152
1023.956	0.01883783
1024.113	0.02085279
1024.27	0.02097177
1024.427	0.01740523
1024.584	0.01681433
1024.741	0.01279847
1024.898	0.01502776
1025.055	0.01201285
1025.212	0.01150732
1025.369	0.01382716
1025.525	0.01349354
1025.682	0.01362931
1025.839	0.01692059
1025.996	0.01342869
1026.153	0.01308805
1026.31	0.01529461
1026.466	0.01002068
1026.623	0.0125336
1026.78	0.01193645
1026.937	0.01123914
1027.093	0.0166665
1027.25	0.01554126
1027.407	0.01430268
1027.563	0.01676609
1027.72	0.01803088
1027.876	0.01529066
1028.033	0.01788256
1028.19	0.01483473
1028.346	0.0162485
1028.503	0.01390384
1028.659	0.01363052
1028.816	0.01090285
1028.972	0.01608683
1029.128	0.01111732
1029.285	0.01185393
1029.441	0.00925668
1029.598	0.01229134
1029.754	0.01327995
1029.91	0.01887688
1030.067	0.01642336
1030.223	0.01507785
1030.379	0.01600139
1030.535	0.0197632
1030.691	0.02006277
1030.848	0.01859671
1031.004	0.0160714
1031.16	0.01765529
1031.316	0.01776634
1031.472	0.01764031
1031.628	0.01379219
1031.784	0.01134644
1031.94	0.01352739
1032.096	0.00807248
1032.252	0.00749732
1032.408	0.01249181
1032.564	0.01181337
1032.72	0.01204581
1032.876	0.01179058
1033.032	0.01415251
1033.188	0.01835428
1033.344	0.01809981
1033.5	0.01917678
1033.655	0.01711122
1033.811	0.02005632
1033.967	0.02794401
