Data from 0_1_mm_pl_50pc_Absorbance__0__18-29-49-132.txt Node

Date: Wed Mar 01 18:29:49 CET 2023
User: Ange
Spectrometer: FLMT08341
Trigger mode: 0
Integration Time (sec): 1.000000E-2
Scans to average: 400
Electric dark correction enabled: true
Nonlinearity correction enabled: false
Boxcar width: 3
XAxis mode: Wavelengths
Number of Pixels in Spectrum: 3648
>>>>>Begin Spectral Data<<<<<
345.271	-0.00955313
345.487	-0.00053251
345.704	-0.0005387
345.921	0.0055756
346.137	-0.00170578
346.354	-0.01152256
346.571	-0.03428143
346.787	-0.12198506
347.004	0.07569685
347.22	0.09024007
347.437	0.11107981
347.653	-0.05329052
347.87	0.21500488
348.086	0.86280727
348.303	-1.10012724
348.519	0.06299005
348.736	0.05168168
348.952	0.04267663
349.169	0.04218045
349.385	0.04607803
349.601	0.04334875
349.818	0.0443948
350.034	0.04321983
350.251	0.04409279
350.467	0.04623859
350.683	0.0440493
350.9	0.04248424
351.116	0.04518512
351.332	0.04220435
351.549	0.04314893
351.765	0.04288721
351.981	0.04248466
352.197	0.04358393
352.414	0.04497401
352.63	0.0433147
352.846	0.04304953
353.062	0.04473233
353.278	0.04277955
353.495	0.04275371
353.711	0.0434309
353.927	0.04380493
354.143	0.04424383
354.359	0.04483627
354.575	0.04342125
354.792	0.04602284
355.008	0.04675011
355.224	0.0468042
355.44	0.0445425
355.656	0.04466538
355.872	0.04596759
356.088	0.04770707
356.304	0.04577222
356.52	0.04599161
356.736	0.04709783
356.952	0.04792641
357.168	0.04878338
357.384	0.04994224
357.6	0.04927299
357.816	0.05103822
358.032	0.05040088
358.248	0.04888846
358.464	0.04945997
358.679	0.05003121
358.895	0.04996932
359.111	0.05039766
359.327	0.05085031
359.543	0.05286366
359.759	0.05491771
359.974	0.05490239
360.19	0.054061
360.406	0.05421645
360.622	0.05327559
360.838	0.05201315
361.053	0.05065551
361.269	0.05120565
361.485	0.05114706
361.701	0.05218743
361.916	0.05087507
362.132	0.05180581
362.348	0.05297865
362.563	0.05448069
362.779	0.05295172
362.995	0.05335884
363.21	0.05285279
363.426	0.05293819
363.641	0.052217
363.857	0.051061
364.073	0.04916669
364.288	0.04942227
364.504	0.05093322
364.719	0.05036195
364.935	0.04968692
365.15	0.04932988
365.366	0.05076896
365.581	0.05140271
365.797	0.05233056
366.012	0.05040093
366.228	0.05040516
366.443	0.05104416
366.658	0.0518703
366.874	0.0503209
367.089	0.05068257
367.305	0.04937388
367.52	0.04970473
367.735	0.05074686
367.951	0.05089983
368.166	0.05090945
368.381	0.05280007
368.597	0.05328914
368.812	0.05440314
369.027	0.0556761
369.243	0.05515152
369.458	0.05542563
369.673	0.05605358
369.888	0.05553886
370.104	0.05538992
370.319	0.05603125
370.534	0.05524992
370.749	0.05568588
370.964	0.05676375
371.179	0.0567205
371.395	0.05670475
371.61	0.05719123
371.825	0.05712261
372.04	0.05769246
372.255	0.05808886
372.47	0.0572546
372.685	0.05763266
372.9	0.05758852
373.115	0.05765073
373.33	0.0570636
373.545	0.05720508
373.76	0.0573199
373.975	0.05761534
374.19	0.05630836
374.405	0.05678491
374.62	0.05677204
374.835	0.05717475
375.05	0.05766928
375.265	0.05789414
375.48	0.05759017
375.695	0.05928512
375.91	0.06019569
376.125	0.0594526
376.339	0.05926927
376.554	0.05874349
376.769	0.05849411
376.984	0.059129
377.199	0.05969569
377.414	0.05847847
377.628	0.05945094
377.843	0.06028308
378.058	0.0605281
378.273	0.06026091
378.487	0.06047843
378.702	0.06041116
378.917	0.06127671
379.131	0.0609419
379.346	0.06054008
379.561	0.06108124
379.775	0.06143755
379.99	0.06125573
380.205	0.06055172
380.419	0.06050509
380.634	0.06034784
380.848	0.06073568
381.063	0.06105267
381.278	0.06099555
381.492	0.06060734
381.707	0.06084022
381.921	0.06010954
382.136	0.06075195
382.35	0.0601823
382.565	0.05951902
382.779	0.05992828
382.994	0.06089042
383.208	0.06139106
383.422	0.06265515
383.637	0.06229713
383.851	0.06348602
384.066	0.06386766
384.28	0.06404103
384.494	0.06374669
384.709	0.0636922
384.923	0.0634724
385.137	0.06407414
385.352	0.06308086
385.566	0.06329651
385.78	0.06368969
385.995	0.06360112
386.209	0.06379003
386.423	0.06444786
386.637	0.06479857
386.852	0.06543297
387.066	0.06517351
387.28	0.06467478
387.494	0.06542567
387.708	0.06547311
387.923	0.06548205
388.137	0.06569642
388.351	0.06606739
388.565	0.06674256
388.779	0.0677082
388.993	0.06816718
389.207	0.06850551
389.421	0.06844702
389.635	0.06787061
389.85	0.06798905
390.064	0.0676399
390.278	0.06698286
390.492	0.06698343
390.706	0.06703589
390.92	0.06699078
391.134	0.06769438
391.348	0.06811378
391.561	0.06831574
391.775	0.06870531
391.989	0.06848814
392.203	0.06854206
392.417	0.06844811
392.631	0.06908527
392.845	0.06881747
393.059	0.06953418
393.273	0.06961752
393.486	0.06970848
393.7	0.06987013
393.914	0.07047613
394.128	0.06976675
394.342	0.07014494
394.555	0.06989887
394.769	0.07015097
394.983	0.07036288
395.197	0.07067723
395.41	0.07067233
395.624	0.0709211
395.838	0.07063048
396.051	0.07091395
396.265	0.07079571
396.479	0.07082593
396.692	0.07079933
396.906	0.07064076
397.12	0.07071246
397.333	0.07093468
397.547	0.07079449
397.76	0.07083745
397.974	0.070847
398.187	0.07083182
398.401	0.07146342
398.614	0.0717387
398.828	0.07163272
399.041	0.07174138
399.255	0.07172972
399.468	0.0717513
399.682	0.0717087
399.895	0.0714918
400.109	0.07116111
400.322	0.07120238
400.536	0.07089488
400.749	0.07128293
400.962	0.07156928
401.176	0.07153394
401.389	0.07146952
401.602	0.07160282
401.816	0.07162697
402.029	0.0721025
402.242	0.07216619
402.456	0.07218759
402.669	0.07225057
402.882	0.07216206
403.095	0.07228474
403.309	0.07228529
403.522	0.07228528
403.735	0.07230295
403.948	0.07257044
404.161	0.07308124
404.375	0.07290251
404.588	0.07303791
404.801	0.07299567
405.014	0.07276209
405.227	0.07271884
405.44	0.07229573
405.653	0.07205352
405.866	0.07224701
406.079	0.07220224
406.293	0.07272282
406.506	0.07282538
406.719	0.07302147
406.932	0.07311444
407.145	0.07288069
407.358	0.07316912
407.571	0.07292714
407.784	0.07280883
407.996	0.07271702
408.209	0.07241701
408.422	0.07221696
408.635	0.07243529
408.848	0.07214535
409.061	0.0723168
409.274	0.07221618
409.487	0.07202715
409.7	0.07207381
409.912	0.07210613
410.125	0.07224727
410.338	0.07230613
410.551	0.07186123
410.764	0.07165487
410.976	0.07171826
411.189	0.0716995
411.402	0.07188022
411.615	0.07139481
411.827	0.07124382
412.04	0.07151127
412.253	0.07153628
412.465	0.07168803
412.678	0.07156058
412.891	0.07124527
413.103	0.07140549
413.316	0.07131409
413.529	0.07133046
413.741	0.0712853
413.954	0.07116022
414.166	0.07116046
414.379	0.07135242
414.591	0.07113232
414.804	0.07110283
415.016	0.07077607
415.229	0.07033489
415.441	0.0699231
415.654	0.07015068
415.866	0.06980559
416.079	0.06966887
416.291	0.06963026
416.504	0.0697499
416.716	0.0699334
416.928	0.06998002
417.141	0.06924607
417.353	0.06915577
417.566	0.06911491
417.778	0.06867311
417.99	0.06811928
418.203	0.06789003
418.415	0.06769753
418.627	0.06772167
418.839	0.067493
419.052	0.06734043
419.264	0.06737028
419.476	0.06750038
419.688	0.06754209
419.901	0.06756901
420.113	0.06729755
420.325	0.06755103
420.537	0.06755506
420.749	0.06735966
420.961	0.06713911
421.174	0.06699041
421.386	0.06663314
421.598	0.06676719
421.81	0.06626352
422.022	0.0659318
422.234	0.06586871
422.446	0.06566262
422.658	0.065174
422.87	0.0649743
423.082	0.06478962
423.294	0.06449881
423.506	0.06429274
423.718	0.06396638
423.93	0.06376618
424.142	0.06364348
424.354	0.06348828
424.566	0.063023
424.778	0.06296733
424.99	0.06261751
425.202	0.06239174
425.414	0.06242387
425.625	0.06232508
425.837	0.06208142
426.049	0.06218245
426.261	0.06185413
426.473	0.06191427
426.684	0.06172395
426.896	0.0613578
427.108	0.06105182
427.32	0.06103342
427.531	0.06074869
427.743	0.06066834
427.955	0.06026457
428.167	0.06013675
428.378	0.0598531
428.59	0.05965614
428.802	0.05950651
429.013	0.05914439
429.225	0.05868719
429.436	0.05856349
429.648	0.05830542
429.86	0.05810152
430.071	0.05769548
430.283	0.05728411
430.494	0.05692287
430.706	0.05691202
430.917	0.05656973
431.129	0.05628699
431.34	0.05615595
431.552	0.05608839
431.763	0.05585051
431.975	0.05591673
432.186	0.05544086
432.398	0.05524775
432.609	0.05500683
432.821	0.05482777
433.032	0.05472121
433.243	0.05463552
433.455	0.05429936
433.666	0.05426249
433.877	0.0541457
434.089	0.05386296
434.3	0.05346223
434.511	0.05303943
434.723	0.05280016
434.934	0.05243134
435.145	0.05214635
435.356	0.05185869
435.568	0.05179643
435.779	0.05163985
435.99	0.05143351
436.201	0.05108081
436.412	0.05079045
436.624	0.05064754
436.835	0.05029403
437.046	0.04998298
437.257	0.04968758
437.468	0.04950324
437.679	0.04920899
437.89	0.04891548
438.101	0.04867637
438.312	0.04846079
438.523	0.04824149
438.734	0.0479619
438.945	0.04751004
439.156	0.0472454
439.367	0.0471798
439.578	0.04677567
439.789	0.04650504
440	0.04616678
440.211	0.04586751
440.422	0.04572203
440.633	0.04542302
440.844	0.04506834
441.055	0.04486813
441.266	0.04460256
441.477	0.04434266
441.687	0.04404196
441.898	0.04377909
442.109	0.04353227
442.32	0.04332404
442.531	0.04291512
442.741	0.04260795
442.952	0.04225774
443.163	0.04207987
443.374	0.041658
443.584	0.04137306
443.795	0.0410838
444.006	0.04096419
444.216	0.04067343
444.427	0.04049397
444.638	0.0400006
444.848	0.03985159
445.059	0.0395157
445.27	0.03913555
445.48	0.0387184
445.691	0.03847634
445.901	0.0381489
446.112	0.03807754
446.323	0.0377869
446.533	0.03749003
446.744	0.03723453
446.954	0.03703382
447.165	0.03677032
447.375	0.03662282
447.586	0.0362712
447.796	0.0360991
448.006	0.03589628
448.217	0.03566597
448.427	0.03534976
448.638	0.0350535
448.848	0.03443504
449.058	0.03425421
449.269	0.03384231
449.479	0.03357018
449.689	0.0333159
449.9	0.03331761
450.11	0.03305975
450.32	0.03293367
450.531	0.03261832
450.741	0.0322855
450.951	0.03199969
451.161	0.03170043
451.372	0.03116428
451.582	0.03106859
451.792	0.03092456
452.002	0.03062551
452.212	0.03049423
452.422	0.03043558
452.633	0.03022108
452.843	0.03019461
453.053	0.02982983
453.263	0.02966219
453.473	0.02948131
453.683	0.02922904
453.893	0.02875756
454.103	0.02862386
454.313	0.02846878
454.523	0.02825496
454.733	0.02797004
454.943	0.02770264
455.153	0.02762052
455.363	0.02751382
455.573	0.02702123
455.783	0.0266419
455.993	0.02639284
456.203	0.02620148
456.413	0.02604184
456.623	0.02573499
456.833	0.02561356
457.042	0.02562096
457.252	0.0254419
457.462	0.02523366
457.672	0.02499077
457.882	0.02471786
458.091	0.02456858
458.301	0.0242199
458.511	0.02396751
458.721	0.02375977
458.931	0.02362206
459.14	0.02350189
459.35	0.02335574
459.56	0.02314446
459.769	0.02297545
459.979	0.02283826
460.189	0.02268478
460.398	0.02247201
460.608	0.02217592
460.817	0.02209218
461.027	0.02180467
461.237	0.02160752
461.446	0.02135756
461.656	0.02108649
461.865	0.02083214
462.075	0.02081377
462.284	0.02067436
462.494	0.02067165
462.703	0.0205451
462.913	0.02036804
463.122	0.02028697
463.332	0.02014704
463.541	0.01993347
463.751	0.01969605
463.96	0.01952881
464.169	0.01944758
464.379	0.01947794
464.588	0.01929975
464.797	0.01918457
465.007	0.0190227
465.216	0.0189157
465.425	0.01867761
465.635	0.01847696
465.844	0.0182108
466.053	0.01801096
466.263	0.01787387
466.472	0.01781534
466.681	0.01759768
466.89	0.01755712
467.099	0.01740261
467.309	0.01729029
467.518	0.01715156
467.727	0.01698326
467.936	0.01682801
468.145	0.0167109
468.354	0.01669001
468.563	0.01662726
468.772	0.01640379
468.982	0.01642718
469.191	0.01630914
469.4	0.01605605
469.609	0.01597611
469.818	0.01573205
470.027	0.0155907
470.236	0.01559716
470.445	0.01543238
470.654	0.01534681
470.863	0.01530773
471.072	0.01521626
471.28	0.01502236
471.489	0.01494519
471.698	0.01476609
471.907	0.01456329
472.116	0.01449359
472.325	0.01433924
472.534	0.01429319
472.743	0.01427898
472.951	0.01415917
473.16	0.01415866
473.369	0.01422494
473.578	0.01411043
473.786	0.01416031
473.995	0.01395948
474.204	0.01382955
474.413	0.01379663
474.621	0.0136247
474.83	0.01340846
475.039	0.01338091
475.247	0.01320335
475.456	0.01319197
475.665	0.01316628
475.873	0.01302401
476.082	0.01305759
476.291	0.01311103
476.499	0.01302559
476.708	0.01308133
476.916	0.0130607
477.125	0.01309883
477.333	0.01305982
477.542	0.01298569
477.75	0.01283844
477.959	0.01270726
478.167	0.01250469
478.376	0.01239206
478.584	0.01224371
478.793	0.01220947
479.001	0.01207045
479.209	0.01202481
479.418	0.01204421
479.626	0.01203595
479.834	0.0119463
480.043	0.01190087
480.251	0.01185449
480.459	0.01181133
480.668	0.01172562
480.876	0.01168432
481.084	0.01159083
481.293	0.01154666
481.501	0.01150147
481.709	0.01139675
481.917	0.01145039
482.125	0.0114419
482.334	0.01144081
482.542	0.01154664
482.75	0.01148933
482.958	0.01148983
483.166	0.01145495
483.374	0.01141739
483.583	0.01148508
483.791	0.01137244
483.999	0.01133086
484.207	0.01143932
484.415	0.01139621
484.623	0.01142053
484.831	0.01135187
485.039	0.01130543
485.247	0.01133299
485.455	0.01124568
485.663	0.01116088
485.871	0.01112355
486.079	0.01114313
486.287	0.01115057
486.495	0.01113002
486.702	0.0111317
486.91	0.0111838
487.118	0.01121026
487.326	0.01122174
487.534	0.01121768
487.742	0.01122743
487.95	0.01118684
488.157	0.01111845
488.365	0.01111083
488.573	0.01105411
488.781	0.01106062
488.988	0.01101034
489.196	0.01108872
489.404	0.01108876
489.612	0.01108911
489.819	0.01109543
490.027	0.01115024
490.235	0.01114298
490.442	0.01119492
490.65	0.01112194
490.857	0.01111423
491.065	0.01117762
491.273	0.01115506
491.48	0.01112939
491.688	0.01111747
491.895	0.01110965
492.103	0.01105836
492.31	0.01114968
492.518	0.01116547
492.725	0.01116166
492.933	0.01111832
493.14	0.01114948
493.348	0.01110187
493.555	0.01117817
493.763	0.01111353
493.97	0.01117818
494.177	0.01120754
494.385	0.01130552
494.592	0.01130496
494.8	0.01143931
495.007	0.01140849
495.214	0.01144819
495.422	0.01144099
495.629	0.01142702
495.836	0.01140107
496.043	0.01147659
496.251	0.01152377
496.458	0.01157628
496.665	0.01163639
496.872	0.01164348
497.08	0.01168564
497.287	0.01178296
497.494	0.01183151
497.701	0.01179955
497.908	0.01185109
498.115	0.01188007
498.322	0.01189429
498.53	0.01195205
498.737	0.01198582
498.944	0.01196475
499.151	0.01199094
499.358	0.01198635
499.565	0.01201353
499.772	0.01206541
499.979	0.0121368
500.186	0.01214027
500.393	0.01219746
500.6	0.01221645
500.807	0.01231967
501.014	0.01234868
501.221	0.01240914
501.427	0.01235859
501.634	0.01244499
501.841	0.01253425
502.048	0.01263457
502.255	0.01269064
502.462	0.01275748
502.669	0.01285225
502.875	0.01293591
503.082	0.01294653
503.289	0.0129527
503.496	0.01297967
503.702	0.01301463
503.909	0.01305529
504.116	0.0130381
504.323	0.01310957
504.529	0.01318449
504.736	0.01320309
504.943	0.01324344
505.149	0.01329676
505.356	0.0133317
505.563	0.01341526
505.769	0.01347231
505.976	0.01355214
506.182	0.01367043
506.389	0.0137292
506.595	0.01374533
506.802	0.01388506
507.008	0.01387513
507.215	0.01395072
507.421	0.0139849
507.628	0.01402289
507.834	0.01405955
508.041	0.01418216
508.247	0.01413395
508.454	0.01426336
508.66	0.01430308
508.866	0.01436759
509.073	0.01443235
509.279	0.01454167
509.486	0.01452708
509.692	0.01464142
509.898	0.01469648
510.105	0.01475931
510.311	0.01479743
510.517	0.01487299
510.723	0.01492851
510.93	0.01505886
511.136	0.01517961
511.342	0.01528962
511.548	0.0153406
511.754	0.01544895
511.961	0.01550592
512.167	0.01557279
512.373	0.01564264
512.579	0.01573809
512.785	0.01575416
512.991	0.0159004
513.197	0.01596895
513.404	0.01606003
513.61	0.01615372
513.816	0.01624082
514.022	0.01629925
514.228	0.01637728
514.434	0.0164522
514.64	0.01649899
514.846	0.01656339
515.052	0.01664256
515.258	0.01668685
515.464	0.01671433
515.669	0.01682478
515.875	0.01687921
516.081	0.0170057
516.287	0.01710127
516.493	0.01712906
516.699	0.01729609
516.905	0.0173891
517.111	0.01749377
517.316	0.01759503
517.522	0.01769241
517.728	0.01778887
517.934	0.01792232
518.139	0.01800211
518.345	0.01808698
518.551	0.01815863
518.757	0.01825999
518.962	0.01833173
519.168	0.01849874
519.374	0.0185881
519.579	0.01863373
519.785	0.01874124
519.991	0.01883178
520.196	0.01893122
520.402	0.01904428
520.607	0.01906107
520.813	0.01918589
521.018	0.01925485
521.224	0.01938185
521.429	0.01950919
521.635	0.0195783
521.84	0.01962627
522.046	0.01975272
522.251	0.01988532
522.457	0.02005842
522.662	0.02012181
522.868	0.02016162
523.073	0.02027534
523.279	0.02042472
523.484	0.02049818
523.689	0.02053575
523.895	0.02062259
524.1	0.02068474
524.305	0.02078516
524.511	0.02090214
524.716	0.02098235
524.921	0.02109769
525.126	0.021232
525.332	0.0213158
525.537	0.02143843
525.742	0.02161774
525.947	0.02170964
526.153	0.02182066
526.358	0.02193418
526.563	0.02205334
526.768	0.02214854
526.973	0.02228124
527.178	0.02235008
527.383	0.0224629
527.588	0.02260208
527.794	0.02270668
527.999	0.02280913
528.204	0.02292499
528.409	0.02306977
528.614	0.02318243
528.819	0.02331291
529.024	0.02339638
529.229	0.02351276
529.434	0.02365104
529.639	0.02380392
529.843	0.02389083
530.048	0.02406571
530.253	0.02415091
530.458	0.02430512
530.663	0.02441402
530.868	0.0245192
531.073	0.02464739
531.278	0.02480536
531.482	0.02488988
531.687	0.02505885
531.892	0.02517023
532.097	0.0252818
532.302	0.02541028
532.506	0.02556457
532.711	0.02567662
532.916	0.02586078
533.12	0.02599916
533.325	0.02611367
533.53	0.02623152
533.734	0.026378
533.939	0.0264581
534.144	0.02661128
534.348	0.02667761
534.553	0.02680508
534.757	0.02695602
534.962	0.02710698
535.167	0.02725289
535.371	0.02744716
535.576	0.02758463
535.78	0.02774449
535.985	0.02785863
536.189	0.02798615
536.394	0.02815806
536.598	0.02826703
536.803	0.02833538
537.007	0.02847512
537.211	0.02860994
537.416	0.02874478
537.62	0.02890979
537.825	0.02906716
538.029	0.02921394
538.233	0.02938723
538.438	0.02954544
538.642	0.02970059
538.846	0.02985742
539.05	0.03001288
539.255	0.03012187
539.459	0.03027627
539.663	0.03041773
539.867	0.03053032
540.072	0.03069535
540.276	0.03086537
540.48	0.03101636
540.684	0.03114909
540.888	0.03127838
541.092	0.03143058
541.297	0.03156898
541.501	0.0316649
541.705	0.03180959
541.909	0.03195559
542.113	0.0321273
542.317	0.03228146
542.521	0.032395
542.725	0.03259237
542.929	0.03278203
543.133	0.03293393
543.337	0.03308571
543.541	0.03322457
543.745	0.03334526
543.949	0.03353271
544.153	0.03362448
544.357	0.03376488
544.56	0.03392109
544.764	0.03408888
544.968	0.03428207
545.172	0.03444267
545.376	0.03462722
545.58	0.03484847
545.783	0.0349982
545.987	0.03515589
546.191	0.03529149
546.395	0.03545989
546.598	0.03567225
546.802	0.03582973
547.006	0.03601412
547.21	0.03619759
547.413	0.03637194
547.617	0.0365454
547.821	0.03672012
548.024	0.03687582
548.228	0.0370202
548.431	0.03718249
548.635	0.0373857
548.839	0.03755487
549.042	0.03772567
549.246	0.03786362
549.449	0.03805987
549.653	0.03826744
549.856	0.03840131
550.06	0.03854079
550.263	0.03875304
550.467	0.03892852
550.67	0.03911386
550.874	0.0393017
551.077	0.03943206
551.28	0.03963792
551.484	0.03981618
551.687	0.03995766
551.891	0.04014538
552.094	0.04034889
552.297	0.04049853
552.501	0.04067857
552.704	0.04082644
552.907	0.04102404
553.11	0.04118358
553.314	0.04135927
553.517	0.04150818
553.72	0.04172522
553.923	0.04193725
554.127	0.04215946
554.33	0.04234657
554.533	0.04256161
554.736	0.04271649
554.939	0.04294842
555.142	0.04311169
555.345	0.04331546
555.549	0.04346959
555.752	0.0436271
555.955	0.04379992
556.158	0.04407012
556.361	0.04425571
556.564	0.04444524
556.767	0.04459912
556.97	0.04480399
557.173	0.04497918
557.376	0.04514129
557.579	0.04528495
557.782	0.04540603
557.984	0.04556874
558.187	0.04577141
558.39	0.04594307
558.593	0.04616841
558.796	0.04641588
558.999	0.04662475
559.202	0.04683941
559.404	0.04704153
559.607	0.04721756
559.81	0.04742083
560.013	0.0476284
560.216	0.04779255
560.418	0.04796825
560.621	0.04824026
560.824	0.04845866
561.026	0.04863178
561.229	0.04883142
561.432	0.0490616
561.634	0.04928663
561.837	0.04948002
562.04	0.04962459
562.242	0.04983542
562.445	0.05003917
562.647	0.05021031
562.85	0.05030371
563.053	0.05044855
563.255	0.05066337
563.458	0.05084142
563.66	0.0509943
563.863	0.05122577
564.065	0.0513986
564.268	0.0516452
564.47	0.0518627
564.672	0.05202596
564.875	0.0522284
565.077	0.0524872
565.28	0.05270187
565.482	0.05296677
565.684	0.05316574
565.887	0.05341154
566.089	0.0536322
566.291	0.05385353
566.494	0.05403259
566.696	0.05422594
566.898	0.05439533
567.1	0.05460061
567.303	0.05472617
567.505	0.05489921
567.707	0.05502772
567.909	0.05522136
568.111	0.05540649
568.314	0.05563476
568.516	0.05584243
568.718	0.05612649
568.92	0.05635168
569.122	0.05660979
569.324	0.0568108
569.526	0.05700782
569.728	0.05722153
569.93	0.05740188
570.132	0.05754755
570.334	0.05774663
570.536	0.05795587
570.738	0.0581501
570.94	0.05831496
571.142	0.05850051
571.344	0.05868857
571.546	0.05885108
571.748	0.05907378
571.95	0.05922223
572.152	0.05942644
572.354	0.05969555
572.555	0.05989662
572.757	0.06010188
572.959	0.0603449
573.161	0.06051344
573.363	0.06071492
573.564	0.0609475
573.766	0.06112978
573.968	0.06136067
574.17	0.0616229
574.371	0.06181396
574.573	0.0619967
574.775	0.06222718
574.976	0.06238279
575.178	0.06254033
575.38	0.06274646
575.581	0.06290763
575.783	0.06310777
575.985	0.06334749
576.186	0.06357235
576.388	0.0638144
576.589	0.06405395
576.791	0.06425319
576.992	0.06445727
577.194	0.06468427
577.395	0.0648907
577.597	0.06509637
577.798	0.06532285
578	0.06550783
578.201	0.06571437
578.402	0.06596355
578.604	0.0661366
578.805	0.06633543
579.007	0.06656045
579.208	0.06672336
579.409	0.06696621
579.611	0.06715514
579.812	0.06733222
580.013	0.06755128
580.215	0.06771357
580.416	0.06788814
580.617	0.06809571
580.818	0.06825528
581.019	0.06845569
581.221	0.06861348
581.422	0.06882837
581.623	0.06908194
581.824	0.06923011
582.025	0.06942671
582.226	0.06965002
582.428	0.06984535
582.629	0.07006087
582.83	0.0702641
583.031	0.070435
583.232	0.07065713
583.433	0.07088781
583.634	0.07107952
583.835	0.0712674
584.036	0.07147562
584.237	0.07164914
584.438	0.07184986
584.639	0.07206067
584.84	0.07219787
585.041	0.07238337
585.242	0.07257737
585.442	0.07278149
585.643	0.0730138
585.844	0.07321156
586.045	0.0734322
586.246	0.07361886
586.447	0.07380265
586.647	0.07401246
586.848	0.07420186
587.049	0.07441707
587.25	0.07460977
587.45	0.07480618
587.651	0.07502153
587.852	0.07525316
588.053	0.07547009
588.253	0.0756526
588.454	0.07581077
588.655	0.07599646
588.855	0.07616687
589.056	0.07634431
589.256	0.07650363
589.457	0.07671392
589.658	0.07691091
589.858	0.07709179
590.059	0.07732298
590.259	0.07749187
590.46	0.07771271
590.66	0.07792334
590.861	0.07803983
591.061	0.07823721
591.262	0.07843047
591.462	0.07858113
591.662	0.07876913
591.863	0.07889913
592.063	0.07911327
592.264	0.07931535
592.464	0.07946418
592.664	0.07960297
592.865	0.07981659
593.065	0.07999897
593.265	0.08025677
593.465	0.08034543
593.666	0.08056094
593.866	0.08077523
594.066	0.08098853
594.266	0.08111275
594.467	0.08129931
594.667	0.08142542
594.867	0.08167007
595.067	0.08179603
595.267	0.08193955
595.467	0.08208276
595.668	0.08228035
595.868	0.08245947
596.068	0.08266743
596.268	0.08281167
596.468	0.08299261
596.668	0.0831937
596.868	0.08341421
597.068	0.08358966
597.268	0.08378039
597.468	0.08392902
597.668	0.08409257
597.868	0.08425265
598.068	0.08438176
598.268	0.08450298
598.467	0.08469986
598.667	0.08479727
598.867	0.08493572
599.067	0.08508798
599.267	0.08528309
599.467	0.08548527
599.667	0.08564919
599.866	0.08577644
600.066	0.08596007
600.266	0.08610894
600.466	0.08627649
600.665	0.08637118
600.865	0.08649831
601.065	0.08669558
601.264	0.08681847
601.464	0.08693598
601.664	0.08710176
601.863	0.0872443
602.063	0.08744137
602.263	0.08755073
602.462	0.08768812
602.662	0.0878286
602.861	0.08801506
603.061	0.08812476
603.26	0.08828257
603.46	0.08834734
603.659	0.08849282
603.859	0.08856072
604.058	0.0886774
604.258	0.08881664
604.457	0.08900517
604.657	0.08909213
604.856	0.08923363
605.056	0.0894343
605.255	0.08958711
605.454	0.08980735
605.654	0.08993617
605.853	0.09007191
606.052	0.09023762
606.252	0.09042251
606.451	0.0905289
606.65	0.090707
606.849	0.09075395
607.049	0.09087133
607.248	0.09095578
607.447	0.09110901
607.646	0.09122276
607.845	0.09132133
608.045	0.09141025
608.244	0.09161872
608.443	0.09174582
608.642	0.09190731
608.841	0.09196598
609.04	0.09205793
609.239	0.09215709
609.438	0.09220671
609.637	0.09226004
609.836	0.09238234
610.035	0.09246497
610.234	0.09263321
610.433	0.09273077
610.632	0.09289776
610.831	0.09312037
611.03	0.09325928
611.229	0.09338696
611.428	0.09349654
611.627	0.09359712
611.826	0.09378003
612.025	0.09392183
612.224	0.09401169
612.422	0.09415572
612.621	0.09426615
612.82	0.09443091
613.019	0.09453799
613.218	0.09463413
613.416	0.09465678
613.615	0.09478268
613.814	0.09486976
614.012	0.09497354
614.211	0.09503442
614.41	0.09518205
614.608	0.09527068
614.807	0.09541765
615.006	0.09553067
615.204	0.09558471
615.403	0.09566671
615.602	0.0957895
615.8	0.09592064
615.999	0.09601878
616.197	0.09612023
616.396	0.09622264
616.594	0.09632051
616.793	0.09649225
616.991	0.09656685
617.19	0.09653854
617.388	0.09668691
617.586	0.09681862
617.785	0.09689422
617.983	0.09699968
618.182	0.0970502
618.38	0.09715226
618.578	0.09733328
618.777	0.09739857
618.975	0.09747375
619.173	0.09757488
619.372	0.09768884
619.57	0.09776239
619.768	0.09786124
619.966	0.09793589
620.165	0.09799301
620.363	0.09809159
620.561	0.09810303
620.759	0.09819484
620.957	0.09832329
621.155	0.09841385
621.354	0.09845382
621.552	0.0985895
621.75	0.09862533
621.948	0.09880935
622.146	0.09890953
622.344	0.09897047
622.542	0.09907052
622.74	0.09914897
622.938	0.09914816
623.136	0.09925613
623.334	0.09930474
623.532	0.09927039
623.73	0.09929874
623.928	0.09935801
624.126	0.09945602
624.324	0.09959274
624.522	0.09960375
624.719	0.09962954
624.917	0.099794
625.115	0.09982704
625.313	0.0998836
625.511	0.09999179
625.708	0.09999229
625.906	0.10007694
626.104	0.10016042
626.302	0.10023379
626.499	0.10037026
626.697	0.10047177
626.895	0.10047145
627.093	0.10059061
627.29	0.10068626
627.488	0.10074219
627.686	0.10079228
627.883	0.10077795
628.081	0.10076988
628.278	0.10092083
628.476	0.10092215
628.673	0.10097752
628.871	0.10105504
629.068	0.10108883
629.266	0.10121731
629.463	0.10126832
629.661	0.10124371
629.858	0.10127947
630.056	0.10129819
630.253	0.10129628
630.451	0.10135876
630.648	0.10136242
630.845	0.10140737
631.043	0.10145896
631.24	0.10159856
631.438	0.10165962
631.635	0.10177696
631.832	0.10181627
632.029	0.1019255
632.227	0.10197647
632.424	0.10206931
632.621	0.10208476
632.818	0.10212021
633.016	0.10217459
633.213	0.10220468
633.41	0.10221816
633.607	0.10226138
633.804	0.10229586
634.001	0.10225062
634.199	0.10229783
634.396	0.10228505
634.593	0.1023191
634.79	0.10237907
634.987	0.10246475
635.184	0.10248488
635.381	0.10266032
635.578	0.10277118
635.775	0.10282842
635.972	0.10285297
636.169	0.10289156
636.366	0.1028492
636.563	0.10287251
636.76	0.10282423
636.957	0.10280196
637.153	0.10278367
637.35	0.10285349
637.547	0.10286416
637.744	0.10289144
637.941	0.10294378
638.138	0.10301957
638.334	0.10301655
638.531	0.10307192
638.728	0.10308208
638.925	0.10314319
639.121	0.10322333
639.318	0.10323737
639.515	0.10319422
639.711	0.10330526
639.908	0.10334398
640.105	0.10338181
640.301	0.10338987
640.498	0.10343948
640.695	0.10350315
640.891	0.10354031
641.088	0.10353933
641.284	0.10354291
641.481	0.10354967
641.677	0.10357703
641.874	0.10353825
642.07	0.10355104
642.267	0.1036072
642.463	0.10363343
642.66	0.10371608
642.856	0.10368834
643.053	0.10363941
643.249	0.10371138
643.445	0.10372129
643.642	0.10367917
643.838	0.10366127
644.034	0.10369067
644.231	0.10375645
644.427	0.10381948
644.623	0.10382764
644.82	0.10384505
645.016	0.10391196
645.212	0.10387486
645.408	0.10385379
645.604	0.10390717
645.801	0.10391734
645.997	0.10392117
646.193	0.10390115
646.389	0.10396497
646.585	0.10399637
646.781	0.10401358
646.977	0.10397552
647.173	0.1039954
647.37	0.10392997
647.566	0.10397162
647.762	0.10392394
647.958	0.10400003
648.154	0.10397433
648.35	0.10399853
648.546	0.10399434
648.742	0.10410571
648.937	0.10403279
649.133	0.10405501
649.329	0.10407676
649.525	0.10408414
649.721	0.10409981
649.917	0.10413949
650.113	0.10409973
650.309	0.10421242
650.504	0.10416746
650.7	0.10411361
650.896	0.10414755
651.092	0.10415034
651.287	0.10416734
651.483	0.10424026
651.679	0.10417032
651.875	0.10424873
652.07	0.10425894
652.266	0.10426688
652.462	0.10428907
652.657	0.10425948
652.853	0.10420826
653.048	0.10426498
653.244	0.10421993
653.44	0.10424525
653.635	0.10422931
653.831	0.10426006
654.026	0.10432637
654.222	0.10436021
654.417	0.10436492
654.613	0.10438182
654.808	0.10435877
655.004	0.1043618
655.199	0.10431223
655.394	0.10426998
655.59	0.10429102
655.785	0.10427583
655.98	0.10431825
656.176	0.1043428
656.371	0.10440733
656.566	0.10447237
656.762	0.10442885
656.957	0.10440939
657.152	0.10444531
657.348	0.10443992
657.543	0.10444389
657.738	0.10443953
657.933	0.10441468
658.128	0.10443873
658.324	0.10442383
658.519	0.10441324
658.714	0.10440981
658.909	0.10439265
659.104	0.10438241
659.299	0.10434194
659.494	0.10437439
659.689	0.10440632
659.884	0.10438567
660.079	0.10434834
660.274	0.10438564
660.469	0.10439319
660.664	0.10441413
660.859	0.10439677
661.054	0.10438385
661.249	0.1043992
661.444	0.10443161
661.639	0.10440351
661.834	0.10437367
662.029	0.10442727
662.224	0.10447592
662.418	0.10449043
662.613	0.10448455
662.808	0.10446468
663.003	0.10447674
663.198	0.10446849
663.392	0.10442638
663.587	0.1044793
663.782	0.10443658
663.977	0.10446416
664.171	0.10450998
664.366	0.10450709
664.561	0.10455376
664.755	0.10459825
664.95	0.10452854
665.144	0.10457825
665.339	0.10459108
665.534	0.10459541
665.728	0.10462248
665.923	0.10461248
666.117	0.10457046
666.312	0.10458538
666.506	0.10461624
666.701	0.10459126
666.895	0.10457602
667.09	0.10454857
667.284	0.10455166
667.479	0.10458346
667.673	0.10461632
667.867	0.1046262
668.062	0.10463995
668.256	0.10462743
668.45	0.10467088
668.645	0.10468056
668.839	0.10468513
669.033	0.10461218
669.228	0.10456593
669.422	0.10458585
669.616	0.10463383
669.81	0.1046772
670.004	0.10465627
670.199	0.10470088
670.393	0.10472246
670.587	0.10476029
670.781	0.10476194
670.975	0.10475759
671.169	0.10470226
671.363	0.10471303
671.558	0.10472674
671.752	0.10476958
671.946	0.10476703
672.14	0.10476639
672.334	0.10479963
672.528	0.10489441
672.722	0.10489291
672.916	0.1049003
673.11	0.10490278
673.304	0.10500683
673.497	0.10502488
673.691	0.10504243
673.885	0.10501229
674.079	0.10508435
674.273	0.10504218
674.467	0.10507242
674.661	0.10501531
674.854	0.1050752
675.048	0.10511865
675.242	0.10513363
675.436	0.10511638
675.629	0.10518895
675.823	0.10517709
676.017	0.10520308
676.211	0.10516042
676.404	0.10516344
676.598	0.10516989
676.792	0.10520685
676.985	0.10524158
677.179	0.10527204
677.372	0.10528126
677.566	0.10534913
677.76	0.1053853
677.953	0.10543418
678.147	0.10548476
678.34	0.10551637
678.534	0.10552459
678.727	0.10558573
678.921	0.10561246
679.114	0.10561607
679.307	0.10566311
679.501	0.10567396
679.694	0.10564697
679.888	0.10567417
680.081	0.10568436
680.274	0.10564949
680.468	0.10565199
680.661	0.105646
680.854	0.1057178
681.048	0.10577501
681.241	0.10582834
681.434	0.10583603
681.627	0.10595049
681.821	0.1059842
682.014	0.10606832
682.207	0.10607674
682.4	0.10606917
682.593	0.1061275
682.786	0.10613495
682.98	0.10611895
683.173	0.10616633
683.366	0.10613924
683.559	0.10612271
683.752	0.10619537
683.945	0.10621803
684.138	0.10630386
684.331	0.10635203
684.524	0.10639613
684.717	0.10641777
684.91	0.10649828
685.103	0.10650327
685.296	0.10652568
685.489	0.1065286
685.682	0.10652036
685.874	0.10653463
686.067	0.10659193
686.26	0.10664125
686.453	0.10664771
686.646	0.10662323
686.839	0.10665381
687.031	0.10672105
687.224	0.10672292
687.417	0.10679003
687.61	0.10680566
687.802	0.10685687
687.995	0.1069068
688.188	0.1069481
688.38	0.10696301
688.573	0.10705417
688.766	0.10708246
688.958	0.10705751
689.151	0.10710345
689.343	0.10718013
689.536	0.10726507
689.729	0.1073071
689.921	0.10733833
690.114	0.10733277
690.306	0.10738294
690.499	0.1074065
690.691	0.10748686
690.884	0.10747238
691.076	0.10753579
691.268	0.10755612
691.461	0.10758633
691.653	0.10766859
691.846	0.10774561
692.038	0.10774286
692.23	0.107764
692.423	0.10780994
692.615	0.10786081
692.807	0.10788263
692.999	0.10794499
693.192	0.10793606
693.384	0.10798474
693.576	0.10801176
693.768	0.10806131
693.961	0.1080822
694.153	0.10817006
694.345	0.10816572
694.537	0.10828333
694.729	0.10831774
694.921	0.10839335
695.113	0.10842336
695.305	0.10849705
695.498	0.10849057
695.69	0.10856012
695.882	0.10852458
696.074	0.10860766
696.266	0.10866574
696.458	0.10869229
696.65	0.10869335
696.842	0.10878583
697.033	0.10882477
697.225	0.10891073
697.417	0.10896357
697.609	0.10899562
697.801	0.10908864
697.993	0.10919159
698.185	0.10921197
698.376	0.1093031
698.568	0.10932478
698.76	0.10937743
698.952	0.10945607
699.144	0.10945149
699.335	0.10947477
699.527	0.10955285
699.719	0.10959675
699.91	0.10971879
700.102	0.10971809
700.294	0.10975999
700.485	0.10983255
700.677	0.10990511
700.869	0.10996087
701.06	0.11000599
701.252	0.11002732
701.443	0.11014248
701.635	0.1102574
701.826	0.11037715
702.018	0.11042785
702.209	0.1105268
702.401	0.1105679
702.592	0.11067279
702.784	0.1106773
702.975	0.1106963
703.166	0.1107228
703.358	0.1107654
703.549	0.11083952
703.741	0.11089289
703.932	0.11092656
704.123	0.11100446
704.315	0.11109672
704.506	0.11118335
704.697	0.1112775
704.888	0.11129583
705.08	0.11136247
705.271	0.11148677
705.462	0.1115216
705.653	0.11155621
705.844	0.11160557
706.035	0.11169163
706.227	0.1117343
706.418	0.11183062
706.609	0.1118386
706.8	0.11197557
706.991	0.11198993
707.182	0.11206276
707.373	0.11207127
707.564	0.11213467
707.755	0.11213972
707.946	0.1122297
708.137	0.11226632
708.328	0.11237833
708.519	0.11242265
708.71	0.11250811
708.901	0.11263024
709.092	0.11275323
709.283	0.11275817
709.473	0.11285059
709.664	0.11296082
709.855	0.11300717
710.046	0.11310052
710.237	0.11315735
710.427	0.11323311
710.618	0.1133474
710.809	0.11338392
711	0.11337843
711.19	0.11342674
711.381	0.11349557
711.572	0.11350442
711.762	0.11357319
711.953	0.1136353
712.144	0.11368473
712.334	0.11377738
712.525	0.11389185
712.715	0.11393235
712.906	0.11400308
713.097	0.11399833
713.287	0.11406194
713.478	0.1141651
713.668	0.11424279
713.859	0.11428337
714.049	0.11433754
714.239	0.11446221
714.43	0.11455176
714.62	0.11463859
714.811	0.11467511
715.001	0.1147436
715.191	0.11485547
715.382	0.11491867
715.572	0.11498606
715.762	0.11504464
715.953	0.11510429
716.143	0.11522842
716.333	0.11532446
716.523	0.11535438
716.714	0.11551907
716.904	0.11554699
717.094	0.11569871
717.284	0.11572915
717.474	0.11576553
717.664	0.11582532
717.855	0.11593125
718.045	0.1159772
718.235	0.11613001
718.425	0.1162135
718.615	0.11636432
718.805	0.11649073
718.995	0.11659342
719.185	0.11673626
719.375	0.11684579
719.565	0.11688613
719.755	0.11697143
719.945	0.11705625
720.135	0.11714977
720.325	0.11725586
720.515	0.11731189
720.704	0.1173523
720.894	0.11743685
721.084	0.11748849
721.274	0.11751178
721.464	0.11755781
721.654	0.1175983
721.843	0.11771691
722.033	0.11778719
722.223	0.11787437
722.413	0.11797921
722.602	0.1180801
722.792	0.11817378
722.982	0.11827297
723.171	0.11828552
723.361	0.11836012
723.55	0.11852384
723.74	0.11859585
723.93	0.11870241
724.119	0.11873281
724.309	0.11883954
724.498	0.11891616
724.688	0.11904099
724.877	0.11910792
725.067	0.11919508
725.256	0.11926479
725.446	0.11935324
725.635	0.11941095
725.825	0.11949389
726.014	0.11951764
726.203	0.11951571
726.393	0.11953093
726.582	0.1195641
726.771	0.11963429
726.961	0.11967844
727.15	0.1197183
727.339	0.11977003
727.529	0.11984494
727.718	0.11992567
727.907	0.11999037
728.096	0.12011498
728.286	0.12016938
728.475	0.12019323
728.664	0.12027156
728.853	0.12030878
729.042	0.12033174
729.231	0.12038907
729.42	0.12035512
729.609	0.12039467
729.799	0.1204779
729.988	0.12052786
730.177	0.12056088
730.366	0.12059211
730.555	0.12060031
730.744	0.12065389
730.933	0.120635
731.122	0.12063641
731.31	0.12068131
731.499	0.1207513
731.688	0.12087044
731.877	0.1209477
732.066	0.12098758
732.255	0.12108514
732.444	0.1211992
732.632	0.12122709
732.821	0.121251
733.01	0.12129927
733.199	0.12131738
733.388	0.12139523
733.576	0.12146606
733.765	0.12150758
733.954	0.12158078
734.142	0.12165711
734.331	0.12168545
734.52	0.12177338
734.708	0.1218004
734.897	0.12179809
735.086	0.12182163
735.274	0.1218705
735.463	0.12189964
735.651	0.12194017
735.84	0.12198224
736.028	0.12209995
736.217	0.12220309
736.405	0.12226035
736.594	0.12231978
736.782	0.1223741
736.971	0.12243273
737.159	0.12251136
737.347	0.12252042
737.536	0.12255288
737.724	0.12263426
737.912	0.12263902
738.101	0.12267757
738.289	0.1226922
738.477	0.12271447
738.666	0.12271414
738.854	0.1227253
739.042	0.12275669
739.23	0.12278273
739.418	0.12284179
739.607	0.12289025
739.795	0.12289876
739.983	0.1229671
740.171	0.1230202
740.359	0.12307528
740.547	0.12310148
740.735	0.12314657
740.923	0.12321535
741.112	0.12324268
741.3	0.12324588
741.488	0.12330864
741.676	0.12337046
741.864	0.1234698
742.052	0.12352649
742.239	0.12347896
742.427	0.12357696
742.615	0.12363306
742.803	0.12367345
742.991	0.12358268
743.179	0.12363802
743.367	0.12359883
743.555	0.12371313
743.742	0.1237065
743.93	0.12374371
744.118	0.12373061
744.306	0.12382886
744.494	0.12383321
744.681	0.12389894
744.869	0.12392731
745.057	0.12393976
745.244	0.12396773
745.432	0.12405908
745.62	0.12412766
745.807	0.1241981
745.995	0.12429814
746.182	0.12428387
746.37	0.12435966
746.558	0.12443383
746.745	0.12440999
746.933	0.12438659
747.12	0.12438539
747.308	0.12446093
747.495	0.12455561
747.683	0.12456215
747.87	0.1245617
748.057	0.12462858
748.245	0.12469708
748.432	0.12471594
748.62	0.12465788
748.807	0.1246939
748.994	0.12475527
749.182	0.12481608
749.369	0.12482679
749.556	0.12484949
749.743	0.12487379
749.931	0.12486918
750.118	0.12487599
750.305	0.12489909
750.492	0.12489384
750.68	0.12495853
750.867	0.12496291
751.054	0.12502097
751.241	0.12506125
751.428	0.12505616
751.615	0.12507472
751.802	0.12513919
751.989	0.12511403
752.176	0.12519649
752.363	0.12522672
752.55	0.12518192
752.737	0.12521226
752.924	0.1252052
753.111	0.12516198
753.298	0.12520488
753.485	0.12512558
753.672	0.12509748
753.859	0.1251716
754.046	0.12519333
754.233	0.12516304
754.42	0.12518717
754.606	0.12520711
754.793	0.12523905
754.98	0.1252634
755.167	0.12524743
755.353	0.12527184
755.54	0.12534958
755.727	0.12538981
755.914	0.12541678
756.1	0.12544385
756.287	0.12545133
756.474	0.12546606
756.66	0.12543715
756.847	0.12541498
757.033	0.12535449
757.22	0.12526258
757.407	0.12528146
757.593	0.12530148
757.78	0.12533144
757.966	0.12537196
758.153	0.12536549
758.339	0.12543423
758.526	0.12551388
758.712	0.12548738
758.898	0.12548326
759.085	0.12540426
759.271	0.12537448
759.458	0.12540482
759.644	0.1253957
759.83	0.12536506
760.017	0.12538285
760.203	0.12534929
760.389	0.12539244
760.576	0.12535148
760.762	0.12530031
760.948	0.12521357
761.134	0.12520863
761.32	0.12516997
761.507	0.12516772
761.693	0.12518052
761.879	0.12520722
762.065	0.12522975
762.251	0.12529905
762.437	0.12527754
762.623	0.1252873
762.809	0.12523004
762.995	0.12518917
763.181	0.12516816
763.367	0.12513737
763.553	0.1251494
763.739	0.12518906
763.925	0.12525079
764.111	0.12532609
764.297	0.12534445
764.483	0.12532204
764.669	0.12530112
764.855	0.12520433
765.041	0.12513094
765.227	0.12508291
765.412	0.12501473
765.598	0.12498753
765.784	0.12493018
765.97	0.12496285
766.156	0.12501074
766.341	0.12510189
766.527	0.12504313
766.713	0.12502482
766.898	0.12500065
767.084	0.12501312
767.27	0.12496163
767.455	0.1249363
767.641	0.12484817
767.827	0.12482081
768.012	0.12485146
768.198	0.12484993
768.383	0.12485749
768.569	0.12483816
768.754	0.12478029
768.94	0.12467814
769.125	0.12462034
769.311	0.12449675
769.496	0.12442321
769.682	0.12437136
769.867	0.12439535
770.052	0.12443511
770.238	0.12444907
770.423	0.12449196
770.608	0.1244758
770.794	0.12447715
770.979	0.12442371
771.164	0.1242946
771.35	0.12412474
771.535	0.12404209
771.72	0.12397627
771.905	0.12400709
772.09	0.12396126
772.276	0.12397177
772.461	0.12394326
772.646	0.12394952
772.831	0.12393057
773.016	0.12387398
773.201	0.12374895
773.386	0.12366126
773.571	0.12359274
773.756	0.12357191
773.941	0.12356313
774.126	0.12356019
774.311	0.1234865
774.496	0.12350961
774.681	0.12348438
774.866	0.1234294
775.051	0.12336802
775.236	0.12324477
775.421	0.12321221
775.606	0.12317286
775.791	0.12307516
775.976	0.12305112
776.16	0.12301429
776.345	0.1229893
776.53	0.12306325
776.715	0.12302773
776.899	0.12298814
777.084	0.12295535
777.269	0.12292207
777.454	0.12282612
777.638	0.1227705
777.823	0.12266552
778.008	0.12252237
778.192	0.12251348
778.377	0.12245355
778.561	0.12237212
778.746	0.12234839
778.931	0.12226668
779.115	0.1222051
779.3	0.12210386
779.484	0.12197615
779.669	0.12193558
779.853	0.12181023
780.037	0.12173111
780.222	0.1217233
780.406	0.12165374
780.591	0.12169481
780.775	0.12169091
780.959	0.12163575
781.144	0.12163717
781.328	0.12159128
781.512	0.12143489
781.697	0.12136557
781.881	0.1212818
782.065	0.1211293
782.249	0.12103937
782.434	0.12095165
782.618	0.12092738
782.802	0.12091646
782.986	0.1208674
783.17	0.12080077
783.354	0.12075293
783.539	0.12066039
783.723	0.12054228
783.907	0.12033427
784.091	0.12023685
784.275	0.12010931
784.459	0.1200116
784.643	0.11992877
784.827	0.11985697
785.011	0.11977549
785.195	0.11978534
785.379	0.11971245
785.563	0.11964114
785.747	0.11952069
785.93	0.11944897
786.114	0.1193374
786.298	0.1192674
786.482	0.11919926
786.666	0.11910663
786.85	0.11903328
787.033	0.11901003
787.217	0.11888147
787.401	0.11878135
787.585	0.11867841
787.768	0.11853521
787.952	0.11841643
788.136	0.11830089
788.319	0.11816479
788.503	0.11804276
788.687	0.11794861
788.87	0.11782863
789.054	0.11775417
789.237	0.11768295
789.421	0.1176037
789.605	0.11747313
789.788	0.11739722
789.972	0.11736341
790.155	0.11727206
790.338	0.11710198
790.522	0.11701337
790.705	0.11684915
790.889	0.11679235
791.072	0.11670471
791.256	0.11657271
791.439	0.11652391
791.622	0.11653597
791.806	0.11641151
791.989	0.11635338
792.172	0.11624489
792.355	0.11614756
792.539	0.11605247
792.722	0.1159257
792.905	0.11571502
793.088	0.11559298
793.271	0.11548644
793.455	0.11535566
793.638	0.11524405
793.821	0.11509351
794.004	0.11501501
794.187	0.11501304
794.37	0.11496767
794.553	0.11488357
794.736	0.11479927
794.919	0.11467762
795.102	0.11464431
795.285	0.11451769
795.468	0.11431269
795.651	0.11416997
795.834	0.11400136
796.017	0.11387281
796.2	0.11380287
796.383	0.1136694
796.566	0.11354663
796.749	0.11345628
796.931	0.11334855
797.114	0.1132992
797.297	0.11318578
797.48	0.11303423
797.663	0.1128867
797.845	0.11286521
798.028	0.11275812
798.211	0.11260673
798.393	0.11241269
798.576	0.11232392
798.759	0.1122038
798.941	0.11204129
799.124	0.11187734
799.307	0.11175338
799.489	0.1116759
799.672	0.11158882
799.854	0.11141269
800.037	0.11130702
800.219	0.1112483
800.402	0.11115104
800.584	0.11103012
800.767	0.11090766
800.949	0.11085621
801.132	0.11074708
801.314	0.11062698
801.496	0.11046047
801.679	0.11024591
801.861	0.11012374
802.043	0.1099034
802.226	0.1097355
802.408	0.10964625
802.59	0.10953747
802.772	0.10938832
802.955	0.10928846
803.137	0.10914355
803.319	0.1090878
803.501	0.10889091
803.684	0.10871189
803.866	0.10854262
804.048	0.10842375
804.23	0.10827363
804.412	0.1081943
804.594	0.1080298
804.776	0.10794786
804.958	0.10783576
805.14	0.10774415
805.322	0.10767775
805.504	0.10760604
805.686	0.10742697
805.868	0.10726213
806.05	0.10712983
806.232	0.10703844
806.414	0.10683286
806.596	0.10667994
806.778	0.10652472
806.96	0.10647789
807.141	0.10641742
807.323	0.10630225
807.505	0.10609881
807.687	0.10602472
807.869	0.10587649
808.05	0.10570776
808.232	0.10549009
808.414	0.10531282
808.595	0.10517962
808.777	0.10499424
808.959	0.10486784
809.14	0.10474863
809.322	0.10461595
809.504	0.10444717
809.685	0.10431925
809.867	0.10419112
810.048	0.10410662
810.23	0.10396602
810.411	0.1037883
810.593	0.1036301
810.774	0.10347183
810.956	0.10338043
811.137	0.10315926
811.319	0.10299902
811.5	0.10280831
811.681	0.10266395
811.863	0.10257938
812.044	0.10249717
812.225	0.10228198
812.407	0.10223315
812.588	0.10215614
812.769	0.10201523
812.951	0.10186623
813.132	0.10168196
813.313	0.10153884
813.494	0.1014227
813.675	0.101204
813.857	0.10105508
814.038	0.10096559
814.219	0.10088921
814.4	0.10073775
814.581	0.10064211
814.762	0.10050863
814.943	0.10046074
815.124	0.10029828
815.305	0.10012883
815.486	0.09994362
815.667	0.09983256
815.848	0.09963957
816.029	0.09942761
816.21	0.09919045
816.391	0.09908546
816.572	0.09886521
816.753	0.0987824
816.934	0.0985677
817.115	0.09841996
817.295	0.09829672
817.476	0.09811915
817.657	0.09784171
817.838	0.09773908
818.019	0.0974528
818.199	0.09733874
818.38	0.09719614
818.561	0.09706236
818.741	0.09699533
818.922	0.09688898
819.103	0.09669426
819.283	0.09656004
819.464	0.09641188
819.645	0.09623431
819.825	0.09606161
820.006	0.09579742
820.186	0.09562951
820.367	0.09546002
820.547	0.09529967
820.728	0.09509481
820.908	0.09490544
821.089	0.09476838
821.269	0.09466563
821.45	0.09452676
821.63	0.09448336
821.81	0.09436493
821.991	0.0941742
822.171	0.09400073
822.351	0.09384188
822.532	0.09358413
822.712	0.09338032
822.892	0.09311518
823.072	0.09290256
823.253	0.09274787
823.433	0.09265235
823.613	0.09245226
823.793	0.09236529
823.973	0.09226956
824.154	0.09216609
824.334	0.09202778
824.514	0.09190612
824.694	0.0916874
824.874	0.09145587
825.054	0.09125206
825.234	0.09103713
825.414	0.09085034
825.594	0.0906703
825.774	0.09048724
825.954	0.09042684
826.134	0.09033861
826.314	0.09017789
826.494	0.09008913
826.674	0.08991754
826.854	0.08976236
827.033	0.08959142
827.213	0.08931925
827.393	0.08912503
827.573	0.08893815
827.753	0.08872087
827.932	0.08851954
828.112	0.08838969
828.292	0.08823885
828.472	0.08806435
828.651	0.08796963
828.831	0.08782657
829.011	0.0876652
829.19	0.0874732
829.37	0.08720153
829.549	0.08699065
829.729	0.08679937
829.909	0.08655471
830.088	0.08638481
830.268	0.08618067
830.447	0.08603926
830.627	0.0859214
830.806	0.08583992
830.986	0.08572142
831.165	0.08557698
831.344	0.0854401
831.524	0.08525214
831.703	0.08507623
831.883	0.08476806
832.062	0.08447925
832.241	0.08421261
832.421	0.0840312
832.6	0.08381265
832.779	0.08359086
832.958	0.08343771
833.138	0.08339039
833.317	0.08329464
833.496	0.0831717
833.675	0.08300762
833.854	0.08278814
834.034	0.08268898
834.213	0.08255715
834.392	0.0823765
834.571	0.08216536
834.75	0.08204003
834.929	0.08185756
835.108	0.0817713
835.287	0.0816248
835.466	0.08144075
835.645	0.08128132
835.824	0.08111671
836.003	0.08091935
836.182	0.08076263
836.361	0.080519
836.54	0.08037903
836.719	0.08020121
836.897	0.08003853
837.076	0.07984345
837.255	0.07968852
837.434	0.07952757
837.613	0.07940131
837.791	0.07919992
837.97	0.07904013
838.149	0.07886988
838.328	0.07875796
838.506	0.07862229
838.685	0.07842806
838.864	0.07829268
839.042	0.07805921
839.221	0.07787991
839.4	0.07776232
839.578	0.07756235
839.757	0.07728385
839.935	0.07705419
840.114	0.07690243
840.292	0.07680887
840.471	0.07667119
840.649	0.07649006
840.828	0.07633564
841.006	0.07621825
841.185	0.07609256
841.363	0.0758689
841.541	0.07566927
841.72	0.07552119
841.898	0.07534452
842.076	0.07514104
842.255	0.07497082
842.433	0.0747879
842.611	0.0746249
842.789	0.07443865
842.968	0.07415973
843.146	0.07400939
843.324	0.0738192
843.502	0.07369172
843.68	0.07360324
843.859	0.07340477
844.037	0.07326211
844.215	0.07312805
844.393	0.07292153
844.571	0.07277866
844.749	0.0726218
844.927	0.07238337
845.105	0.07226483
845.283	0.07212796
845.461	0.07198964
845.639	0.07179714
845.817	0.0716448
845.995	0.07147066
846.173	0.07134764
846.351	0.07125217
846.529	0.07103899
846.706	0.07079248
846.884	0.07063958
847.062	0.07038534
847.24	0.07012532
847.418	0.06983587
847.595	0.06953796
847.773	0.0693813
847.951	0.06927467
848.129	0.06908342
848.306	0.06904368
848.484	0.06897087
848.662	0.06894825
848.839	0.06892866
849.017	0.06875917
849.194	0.06861326
849.372	0.06843387
849.549	0.06815924
849.727	0.06797412
849.905	0.06770323
850.082	0.06745121
850.26	0.06734401
850.437	0.06715665
850.614	0.06703978
850.792	0.06695555
850.969	0.06679199
851.147	0.06669664
851.324	0.06658478
851.501	0.06628054
851.679	0.06605067
851.856	0.0657989
852.033	0.06557265
852.211	0.06533142
852.388	0.0650611
852.565	0.06479343
852.742	0.06465434
852.92	0.06448706
853.097	0.06434847
853.274	0.06426051
853.451	0.06413925
853.628	0.06406816
853.805	0.0639667
853.982	0.06384826
854.159	0.06372366
854.336	0.0636217
854.514	0.06343585
854.691	0.06317634
854.868	0.06289188
855.045	0.06262293
855.221	0.06244399
855.398	0.06221153
855.575	0.06199449
855.752	0.06173043
855.929	0.06163147
856.106	0.06157269
856.283	0.06155521
856.46	0.06142406
856.637	0.06147274
856.813	0.06133288
856.99	0.06123122
857.167	0.06102058
857.344	0.06085403
857.52	0.06057553
857.697	0.06032653
857.874	0.0600084
858.05	0.05980453
858.227	0.05962255
858.404	0.05948773
858.58	0.05939616
858.757	0.05933292
858.933	0.05921285
859.11	0.0591047
859.287	0.05898604
859.463	0.05886472
859.64	0.05873064
859.816	0.05840748
859.993	0.05819424
860.169	0.05799519
860.345	0.05773352
860.522	0.05758268
860.698	0.05748189
860.875	0.05736028
861.051	0.05726349
861.227	0.05713527
861.404	0.05702806
861.58	0.05696707
861.756	0.05685535
861.932	0.05667232
862.109	0.05645638
862.285	0.05627709
862.461	0.05606365
862.637	0.05589157
862.813	0.05568985
862.99	0.05537538
863.166	0.05509719
863.342	0.0550624
863.518	0.05491664
863.694	0.05482279
863.87	0.05471509
864.046	0.05452608
864.222	0.05450223
864.398	0.05441273
864.574	0.05412461
864.75	0.05402691
864.926	0.05385541
865.102	0.05372627
865.278	0.05356787
865.454	0.05342033
865.63	0.05329816
865.805	0.05322622
865.981	0.05311385
866.157	0.05301872
866.333	0.05292094
866.509	0.05291829
866.684	0.05283338
866.86	0.05281293
867.036	0.0526845
867.212	0.05255192
867.387	0.05231451
867.563	0.052069
867.739	0.0517829
867.914	0.05151855
868.09	0.05122388
868.265	0.05106235
868.441	0.05083178
868.617	0.05069042
868.792	0.05054815
868.968	0.05037643
869.143	0.05026597
869.319	0.05021878
869.494	0.05008609
869.67	0.04994777
869.845	0.04976785
870.02	0.04959864
870.196	0.04956946
870.371	0.04937455
870.546	0.04908125
870.722	0.04884911
870.897	0.04862604
871.072	0.04852153
871.248	0.04833355
871.423	0.04808907
871.598	0.04792078
871.773	0.04782046
871.949	0.04778639
872.124	0.04768091
872.299	0.04757202
872.474	0.04747287
872.649	0.0473817
872.824	0.04722785
872.999	0.0471285
873.174	0.04691745
873.349	0.04672308
873.524	0.04647935
873.699	0.04623197
873.874	0.04598571
874.049	0.0459102
874.224	0.04567055
874.399	0.04555265
874.574	0.04558381
874.749	0.04549305
874.924	0.04540539
875.099	0.04535007
875.274	0.04517643
875.449	0.04514954
875.623	0.04494677
875.798	0.0447059
875.973	0.04457765
876.148	0.04444966
876.322	0.04427
876.497	0.04412841
876.672	0.0438847
876.846	0.04379851
877.021	0.04369069
877.196	0.04357014
877.37	0.04348162
877.545	0.04341974
877.72	0.04325871
877.894	0.04316258
878.069	0.04296374
878.243	0.04277751
878.418	0.04256419
878.592	0.04234477
878.767	0.0420744
878.941	0.04190569
879.116	0.04172706
879.29	0.04162901
879.464	0.04150491
879.639	0.04137514
879.813	0.04133323
879.987	0.04144094
880.162	0.04136459
880.336	0.04128315
880.51	0.04120842
880.685	0.04111041
880.859	0.04108379
881.033	0.0408718
881.207	0.04051076
881.381	0.04034264
881.556	0.04014207
881.73	0.03993031
881.904	0.03968656
882.078	0.03953098
882.252	0.03941505
882.426	0.03940035
882.6	0.03937999
882.774	0.03930903
882.948	0.03918672
883.122	0.03920457
883.296	0.03907916
883.47	0.03897589
883.644	0.03884686
883.818	0.03873033
883.992	0.0385655
884.166	0.03843737
884.34	0.03828543
884.514	0.03812362
884.687	0.03808653
884.861	0.03793938
885.035	0.03771504
885.209	0.03768142
885.382	0.03766599
885.556	0.03767376
885.73	0.03754637
885.904	0.03729824
886.077	0.03722148
886.251	0.03712124
886.425	0.03698545
886.598	0.03679713
886.772	0.03645756
886.945	0.03641115
887.119	0.03638926
887.292	0.03621099
887.466	0.03615699
887.64	0.03607932
887.813	0.03601844
887.986	0.03590718
888.16	0.03573515
888.333	0.0355101
888.507	0.03535769
888.68	0.03516662
888.854	0.03504596
889.027	0.03482529
889.2	0.03477065
889.374	0.03462011
889.547	0.03454806
889.72	0.03439905
889.893	0.0343016
890.067	0.03416537
890.24	0.0341419
890.413	0.03400768
890.586	0.03399741
890.759	0.03392521
890.933	0.03395348
891.106	0.03389608
891.279	0.03384172
891.452	0.03375166
891.625	0.03370257
891.798	0.03350689
891.971	0.03329827
892.144	0.03314599
892.317	0.03291451
892.49	0.03260591
892.663	0.03231008
892.836	0.03219561
893.009	0.03215275
893.182	0.032086
893.355	0.03202156
893.527	0.03198875
893.7	0.03211079
893.873	0.03217503
894.046	0.03209328
894.219	0.03195326
894.391	0.03190801
894.564	0.03166894
894.737	0.03145058
894.91	0.03115276
895.082	0.03083053
895.255	0.03061704
895.428	0.03045256
895.6	0.03020222
895.773	0.03020491
895.945	0.03021795
896.118	0.03018009
896.291	0.03022467
896.463	0.03023007
896.636	0.03016564
896.808	0.03018851
896.981	0.03003511
897.153	0.02993637
897.326	0.02990549
897.498	0.02976506
897.67	0.0296256
897.843	0.02946975
898.015	0.02928886
898.187	0.02916349
898.36	0.02887359
898.532	0.02861563
898.704	0.02847781
898.877	0.02836905
899.049	0.02830703
899.221	0.02827836
899.393	0.0281559
899.566	0.02820248
899.738	0.02817713
899.91	0.02813666
900.082	0.0279499
900.254	0.0278529
900.426	0.02773017
900.598	0.02763335
900.77	0.02751718
900.942	0.02735181
901.114	0.02723696
901.286	0.02712454
901.458	0.02704656
901.63	0.02692741
901.802	0.02683831
901.974	0.02673692
902.146	0.02668389
902.318	0.0266352
902.49	0.02662489
902.662	0.02646206
902.834	0.02640094
903.005	0.02633081
903.177	0.02627411
903.349	0.02616506
903.521	0.02612489
903.693	0.02600791
903.864	0.02594413
904.036	0.02587954
904.208	0.0258176
904.379	0.02568467
904.551	0.02569202
904.723	0.02551276
904.894	0.02545274
905.066	0.02535124
905.237	0.02530346
905.409	0.02510957
905.58	0.02500844
905.752	0.02492076
905.923	0.02483039
906.095	0.02464155
906.266	0.02456931
906.438	0.0243754
906.609	0.02438449
906.78	0.02431768
906.952	0.02419606
907.123	0.02402374
907.295	0.02392183
907.466	0.02385166
907.637	0.02373593
907.808	0.0236869
907.98	0.02353558
908.151	0.0233822
908.322	0.02338036
908.493	0.02333612
908.665	0.02333335
908.836	0.0232931
909.007	0.02320298
909.178	0.02329058
909.349	0.02336839
909.52	0.02331237
909.691	0.02329534
909.862	0.02317871
910.033	0.02307419
910.204	0.02293867
910.375	0.02286692
910.546	0.02273803
910.717	0.0226777
910.888	0.02257192
911.059	0.02236601
911.23	0.0223688
911.401	0.02237248
911.572	0.02219112
911.742	0.02202723
911.913	0.02189189
912.084	0.02173915
912.255	0.02168201
912.426	0.02157509
912.596	0.02127598
912.767	0.02115192
912.938	0.02101327
913.108	0.02084272
913.279	0.02074667
913.45	0.02068118
913.62	0.02052793
913.791	0.02063735
913.962	0.02062769
914.132	0.02068124
914.303	0.02065097
914.473	0.02079307
914.644	0.02067029
914.814	0.02055849
914.985	0.02036928
915.155	0.02028157
915.326	0.02009023
915.496	0.02001281
915.666	0.01982125
915.837	0.01979658
916.007	0.019839
916.177	0.01970077
916.348	0.01953243
916.518	0.01950714
916.688	0.01950067
916.858	0.01933115
917.029	0.01924742
917.199	0.0190948
917.369	0.01911091
917.539	0.01915693
917.709	0.01904909
917.88	0.01884179
918.05	0.01872353
918.22	0.0186317
918.39	0.01856072
918.56	0.01840516
918.73	0.01827093
918.9	0.01827089
919.07	0.01824616
919.24	0.01826637
919.41	0.01825309
919.58	0.01822344
919.75	0.01837015
919.92	0.01832514
920.09	0.01820969
920.26	0.01819834
920.429	0.01822096
920.599	0.01812085
920.769	0.01798299
920.939	0.01776465
921.109	0.01768127
921.278	0.01750863
921.448	0.01730834
921.618	0.01721514
921.787	0.0171138
921.957	0.0171027
922.127	0.0170032
922.296	0.01687946
922.466	0.01696181
922.636	0.01693698
922.805	0.01691007
922.975	0.01696035
923.144	0.0169692
923.314	0.01693334
923.483	0.01697492
923.653	0.01675274
923.822	0.01671011
923.992	0.01657823
924.161	0.016522
924.331	0.01625984
924.5	0.01626325
924.669	0.01615432
924.839	0.01600347
925.008	0.01598435
925.177	0.01580005
925.347	0.01559725
925.516	0.01571493
925.685	0.0156538
925.854	0.015643
926.023	0.01579396
926.193	0.01582443
926.362	0.01581802
926.531	0.01579295
926.7	0.01570515
926.869	0.01560712
927.038	0.01539612
927.207	0.01522669
927.376	0.01498388
927.545	0.01499525
927.715	0.0150984
927.884	0.01510745
928.052	0.01512606
928.221	0.01514736
928.39	0.01514941
928.559	0.01513645
928.728	0.0151427
928.897	0.01507784
929.066	0.01507487
929.235	0.01499875
929.404	0.01503228
929.572	0.01488395
929.741	0.01490184
929.91	0.01473099
930.079	0.01469793
930.247	0.01473168
930.416	0.01464907
930.585	0.01454017
930.753	0.01465876
930.922	0.01464377
931.091	0.01473366
931.259	0.01444033
931.428	0.0142092
931.596	0.014127
931.765	0.01402562
931.934	0.0139979
932.102	0.01391391
932.27	0.01382684
932.439	0.01394365
932.607	0.01384027
932.776	0.01382443
932.944	0.01356863
933.113	0.01344494
933.281	0.01322906
933.449	0.01307455
933.618	0.01284978
933.786	0.01281987
933.954	0.01279163
934.123	0.01296785
934.291	0.01289648
934.459	0.01312672
934.627	0.0131636
934.795	0.01320659
934.964	0.01336631
935.132	0.0133624
935.3	0.01324972
935.468	0.01340445
935.636	0.0133064
935.804	0.01329501
935.972	0.01325837
936.14	0.01310413
936.308	0.01310427
936.476	0.01345191
936.644	0.01334206
936.812	0.01327216
936.98	0.01322129
937.148	0.01321272
937.316	0.0130304
937.484	0.01292162
937.652	0.01270024
937.82	0.01274388
937.987	0.01298799
938.155	0.01323029
938.323	0.01356275
938.491	0.01363588
938.658	0.01394857
938.826	0.013931
938.994	0.01420612
939.162	0.01421745
939.329	0.01402828
939.497	0.01364523
939.665	0.01408619
939.832	0.01389285
940	0.01414247
940.167	0.01419152
940.335	0.01452212
940.502	0.01501109
940.67	0.01548616
940.837	0.01534527
941.005	0.0154614
941.172	0.01559103
941.34	0.01516869
941.507	0.01461245
941.674	0.01414589
941.842	0.01397743
942.009	0.01411635
942.177	0.01336244
942.344	0.01358522
942.511	0.01454733
942.678	0.01542869
942.846	0.01604967
943.013	0.01613058
943.18	0.01562428
943.347	0.01705219
943.514	0.01708859
943.682	0.01695716
943.849	0.01679887
944.016	0.01623684
944.183	0.01694798
944.35	0.01733125
944.517	0.01712335
944.684	0.01706369
944.851	0.01711202
945.018	0.01701875
945.185	0.01785865
945.352	0.01713816
945.519	0.01718956
945.686	0.01653643
945.853	0.01613827
946.02	0.01517148
946.187	0.01565184
946.353	0.01418369
946.52	0.01370164
946.687	0.01367221
946.854	0.01388571
947.021	0.01343377
947.187	0.01375533
947.354	0.01290281
947.521	0.01366569
947.687	0.01440667
947.854	0.01419991
948.021	0.01465682
948.187	0.01510664
948.354	0.01454265
948.52	0.01462911
948.687	0.01414149
948.854	0.01385086
949.02	0.01353984
949.187	0.01343313
949.353	0.01353967
949.52	0.01314695
949.686	0.01237523
949.852	0.01205715
950.019	0.01182328
950.185	0.01177473
950.352	0.01164466
950.518	0.01178775
950.684	0.01264733
950.851	0.01236137
951.017	0.01277402
951.183	0.01237385
951.349	0.01272631
951.516	0.01194431
951.682	0.01088569
951.848	0.00998828
952.014	0.00991687
952.18	0.0095869
952.346	0.00996564
952.512	0.00914287
952.679	0.00993011
952.845	0.01042979
953.011	0.01112618
953.177	0.01142875
953.343	0.01153094
953.509	0.01125283
953.675	0.01110004
953.841	0.01083851
954.007	0.01084604
954.172	0.01022022
954.338	0.01058324
954.504	0.01057855
954.67	0.01078918
954.836	0.01114489
955.002	0.01046864
955.167	0.0103448
955.333	0.01058346
955.499	0.01045742
955.665	0.01016054
955.83	0.00977368
955.996	0.00971328
956.162	0.00961482
956.327	0.00956861
956.493	0.00969737
956.659	0.00964417
956.824	0.00937612
956.99	0.00976614
957.155	0.00965206
957.321	0.00977249
957.486	0.00982241
957.652	0.00924893
957.817	0.00900117
957.983	0.00946826
958.148	0.00919685
958.314	0.00880351
958.479	0.00872691
958.644	0.00841208
958.81	0.00857717
958.975	0.00831499
959.14	0.00798696
959.306	0.00758086
959.471	0.00779579
959.636	0.00727838
959.801	0.00747319
959.967	0.00737603
960.132	0.00760746
960.297	0.00755215
960.462	0.00761766
960.627	0.00775869
960.792	0.00834634
960.957	0.00806221
961.123	0.00821878
961.288	0.00822199
961.453	0.00839022
961.618	0.00816263
961.783	0.00795859
961.948	0.00754118
962.113	0.00765212
962.277	0.00709279
962.442	0.00688507
962.607	0.006488
962.772	0.00694782
962.937	0.00701857
963.102	0.00723027
963.267	0.00733144
963.431	0.00767464
963.596	0.00772776
963.761	0.00785628
963.926	0.00739983
964.09	0.00727298
964.255	0.00707317
964.42	0.00713294
964.584	0.00700051
964.749	0.00648759
964.914	0.00663931
965.078	0.00684177
965.243	0.00648614
965.407	0.0065226
965.572	0.00598633
965.736	0.00608472
965.901	0.00665542
966.065	0.00626411
966.23	0.00636908
966.394	0.00681532
966.559	0.00682961
966.723	0.00689197
966.887	0.0065291
967.052	0.00613805
967.216	0.00626962
967.38	0.00604331
967.545	0.00613118
967.709	0.00608429
967.873	0.00616718
968.037	0.00639998
968.202	0.00654992
968.366	0.00644696
968.53	0.0065619
968.694	0.00657316
968.858	0.0068724
969.022	0.00669317
969.187	0.00679636
969.351	0.00669431
969.515	0.00732225
969.679	0.00747787
969.843	0.00738954
970.007	0.00732023
970.171	0.00716412
970.335	0.00693201
970.499	0.00706997
970.662	0.0064355
970.826	0.00628821
970.99	0.00624011
971.154	0.00635707
971.318	0.00672496
971.482	0.00683764
971.645	0.00658014
971.809	0.00651369
971.973	0.00627133
972.137	0.00574589
972.3	0.00558611
972.464	0.00536805
972.628	0.00538211
972.791	0.00567206
972.955	0.00558784
973.119	0.00554495
973.282	0.00613828
973.446	0.00594584
973.609	0.00579946
973.773	0.00584155
973.936	0.00558901
974.1	0.00598883
974.263	0.00596451
974.427	0.00534185
974.59	0.00546348
974.754	0.00606421
974.917	0.00589881
975.08	0.00603091
975.244	0.00624076
975.407	0.00624503
975.57	0.00635381
975.734	0.00622014
975.897	0.00569968
976.06	0.00592797
976.223	0.00615737
976.387	0.00561911
976.55	0.00570453
976.713	0.005946
976.876	0.00597217
977.039	0.00628379
977.202	0.00598498
977.365	0.00554019
977.528	0.00560286
977.692	0.00557187
977.855	0.00562499
978.018	0.00561197
978.181	0.00525151
978.344	0.00551619
978.506	0.00543736
978.669	0.00548017
978.832	0.00568227
978.995	0.00535207
979.158	0.00532371
979.321	0.00530345
979.484	0.00503295
979.646	0.00524037
979.809	0.00523799
979.972	0.00502835
980.135	0.00549094
980.297	0.00526711
980.46	0.00556153
980.623	0.00567552
980.786	0.00577711
980.948	0.00580487
981.111	0.00616614
981.273	0.00583751
981.436	0.00603208
981.599	0.0061128
981.761	0.00563003
981.924	0.00540328
982.086	0.00503978
982.249	0.00480453
982.411	0.00492603
982.573	0.0045844
982.736	0.00420648
982.898	0.00433173
983.061	0.00441623
983.223	0.00418841
983.385	0.00429417
983.548	0.0042886
983.71	0.00448926
983.872	0.0045299
984.034	0.00483691
984.197	0.00545376
984.359	0.00599696
984.521	0.00590628
984.683	0.00544977
984.845	0.00567328
985.008	0.00571052
985.17	0.00524725
985.332	0.00431338
985.494	0.0040427
985.656	0.00370669
985.818	0.00421424
985.98	0.00396756
986.142	0.00399043
986.304	0.00463495
986.466	0.00456457
986.628	0.00488476
986.79	0.00504955
986.952	0.00459307
987.113	0.00479654
987.275	0.0047238
987.437	0.00428354
987.599	0.00454817
987.761	0.00439776
987.922	0.00471899
988.084	0.0053037
988.246	0.00509653
988.408	0.00479374
988.569	0.00486465
988.731	0.00501694
988.893	0.0051752
989.054	0.00503696
989.216	0.00475193
989.377	0.00488147
989.539	0.00520043
989.701	0.00530629
989.862	0.00470752
990.024	0.00479884
990.185	0.00430946
990.347	0.0049948
990.508	0.00523945
990.669	0.00546404
990.831	0.00548559
990.992	0.00621689
991.154	0.00558238
991.315	0.00634605
991.476	0.00512501
991.638	0.00466126
991.799	0.00470689
991.96	0.00511934
992.121	0.00469671
992.283	0.00510045
992.444	0.0050171
992.605	0.00525545
992.766	0.00599434
992.927	0.00570195
993.088	0.00462653
993.249	0.00470029
993.41	0.00498223
993.572	0.00496044
993.733	0.00545037
993.894	0.0047814
994.055	0.0051152
994.216	0.0065212
994.376	0.00698931
994.537	0.00597994
994.698	0.00528084
994.859	0.00553498
995.02	0.00523878
995.181	0.00462163
995.342	0.0038888
995.503	0.00391838
995.663	0.00542091
995.824	0.00598392
995.985	0.00550082
996.146	0.00591886
996.306	0.00627634
996.467	0.00667802
996.628	0.00607399
996.788	0.00516496
996.949	0.00499258
997.11	0.00506658
997.27	0.0053384
997.431	0.00587089
997.591	0.00530111
997.752	0.00543055
997.912	0.00587708
998.073	0.00665462
998.233	0.00699855
998.394	0.00665902
998.554	0.00669496
998.714	0.00704023
998.875	0.00764867
999.035	0.0075824
999.196	0.00692238
999.356	0.00589744
999.516	0.0057867
999.676	0.00521319
999.837	0.00502369
999.997	0.00450509
1000.157	0.00390024
1000.317	0.00376946
1000.477	0.00434863
1000.638	0.00516218
1000.798	0.00536378
1000.958	0.005026
1001.118	0.00459786
1001.278	0.00426486
1001.438	0.00397001
1001.598	0.00370794
1001.758	0.00401237
1001.918	0.00422919
1002.078	0.00467624
1002.238	0.0058474
1002.398	0.00743473
1002.558	0.00806052
1002.718	0.00885201
1002.878	0.0086077
1003.037	0.00874882
1003.197	0.00897383
1003.357	0.00868841
1003.517	0.00854879
1003.677	0.00697829
1003.836	0.0068576
1003.996	0.00613574
1004.156	0.00536101
1004.315	0.00538877
1004.475	0.00558279
1004.635	0.00573928
1004.794	0.00688763
1004.954	0.00732348
1005.114	0.00804068
1005.273	0.00854755
1005.433	0.00855171
1005.592	0.00901316
1005.752	0.00836992
1005.911	0.00834576
1006.071	0.00858621
1006.23	0.0076007
1006.389	0.0069861
1006.549	0.00697394
1006.708	0.00659581
1006.868	0.00649997
1007.027	0.00665414
1007.186	0.00595164
1007.345	0.00629502
1007.505	0.00708973
1007.664	0.00581083
1007.823	0.00471367
1007.982	0.00559742
1008.142	0.00681947
1008.301	0.00572287
1008.46	0.00575547
1008.619	0.00424977
1008.778	0.00672291
1008.937	0.00656731
1009.096	0.0043105
1009.255	0.00342492
1009.414	0.00477454
1009.573	0.00480281
1009.732	0.00562439
1009.891	0.00473086
1010.05	0.00509548
1010.209	0.00776351
1010.368	0.00721541
1010.527	0.00684526
1010.686	0.00753578
1010.845	0.00904677
1011.003	0.00909314
1011.162	0.01051034
1011.321	0.00952691
1011.48	0.01002403
1011.638	0.01016261
1011.797	0.01081639
1011.956	0.01068024
1012.115	0.0102401
1012.273	0.00890125
1012.432	0.00828123
1012.59	0.00741337
1012.749	0.00896504
1012.908	0.00776893
1013.066	0.00678212
1013.225	0.0067908
1013.383	0.00617819
1013.542	0.00658848
1013.7	0.00887762
1013.859	0.00700102
1014.017	0.00563576
1014.175	0.00529777
1014.334	0.00579064
1014.492	0.00789541
1014.65	0.00873175
1014.809	0.00686517
1014.967	0.00800604
1015.125	0.008789
1015.284	0.00906852
1015.442	0.0098701
1015.6	0.01135809
1015.758	0.0121822
1015.916	0.01321244
1016.075	0.01376134
1016.233	0.01516897
1016.391	0.01737243
1016.549	0.01689602
1016.707	0.01553956
1016.865	0.01457786
1017.023	0.01350979
1017.181	0.01210535
1017.339	0.01295589
1017.497	0.01079344
1017.655	0.00921621
1017.813	0.0082329
1017.971	0.00820558
1018.129	0.00861886
1018.286	0.00992539
1018.444	0.00735732
1018.602	0.00918844
1018.76	0.01042329
1018.918	0.01063675
1019.075	0.00827122
1019.233	0.00823258
1019.391	0.00740193
1019.549	0.01066557
1019.706	0.01099165
1019.864	0.01370078
1020.022	0.01463196
1020.179	0.01757265
1020.337	0.01828574
1020.494	0.02004011
1020.652	0.0194446
1020.809	0.02023711
1020.967	0.01926047
1021.124	0.01903295
1021.282	0.01753945
1021.439	0.0192399
1021.597	0.01766265
1021.754	0.01776009
1021.911	0.01566754
1022.069	0.01263378
1022.226	0.01288305
1022.384	0.01530138
1022.541	0.01584829
1022.698	0.01630353
1022.855	0.0136225
1023.013	0.01377002
1023.17	0.01545361
1023.327	0.01546668
1023.484	0.01636094
1023.641	0.01352444
1023.798	0.01618584
1023.956	0.0212432
1024.113	0.02015383
1024.27	0.02231879
1024.427	0.02052583
1024.584	0.02287753
1024.741	0.02305333
1024.898	0.02162956
1025.055	0.01864771
1025.212	0.02189444
1025.369	0.01972794
1025.525	0.02135597
1025.682	0.01662139
1025.839	0.02037021
1025.996	0.01731551
1026.153	0.01569321
1026.31	0.01704828
1026.466	0.01557751
1026.623	0.01831661
1026.78	0.02083788
1026.937	0.01814315
1027.093	0.02219409
1027.25	0.02588036
1027.407	0.02222767
1027.563	0.02633594
1027.72	0.02537386
1027.876	0.02306311
1028.033	0.02850398
1028.19	0.02827421
1028.346	0.02509578
1028.503	0.02776089
1028.659	0.02693714
1028.816	0.02804598
1028.972	0.03146559
1029.128	0.02358537
1029.285	0.02180548
1029.441	0.02342918
1029.598	0.02208688
1029.754	0.02107272
1029.91	0.02134637
1030.067	0.02202213
1030.223	0.02411427
1030.379	0.02309395
1030.535	0.02389609
1030.691	0.02143915
1030.848	0.02407717
1031.004	0.02233758
1031.16	0.01987435
1031.316	0.01943648
1031.472	0.02019979
1031.628	0.02045935
1031.784	0.02270859
1031.94	0.02148318
1032.096	0.01901959
1032.252	0.02344288
1032.408	0.02456997
1032.564	0.027684
1032.72	0.03136287
1032.876	0.02859358
1033.032	0.03055289
1033.188	0.03001745
1033.344	0.02443365
1033.5	0.02196843
1033.655	0.02009325
1033.811	0.01568117
1033.967	0.01733921
