Data from 1_mm_pl_20pc_Absorbance__0__16-12-08-368.txt Node

Date: Wed Mar 08 16:12:08 CET 2023
User: Ange
Spectrometer: FLMT08341
Trigger mode: 0
Integration Time (sec): 1.000000E-2
Scans to average: 400
Electric dark correction enabled: true
Nonlinearity correction enabled: false
Boxcar width: 3
XAxis mode: Wavelengths
Number of Pixels in Spectrum: 3648
>>>>>Begin Spectral Data<<<<<
345.271	0.00093603
345.487	-0.00741959
345.704	-0.00024879
345.921	0.00565731
346.137	0.00842299
346.354	0.01722638
346.571	0.03155143
346.787	0.01281317
347.004	-0.02521398
347.22	0.01559871
347.437	0.11057532
347.653	0.23414995
347.87	-0.28133246
348.086	-0.19787447
348.303	0.12947103
348.519	0.4196769
348.736	0.41755366
348.952	0.42011428
349.169	0.43899335
349.385	0.46698133
349.601	0.45887559
349.818	0.45400254
350.034	0.44927516
350.251	0.44926257
350.467	0.45804077
350.683	0.4459354
350.9	0.44022804
351.116	0.44156067
351.332	0.43718535
351.549	0.45458375
351.765	0.46936067
351.981	0.47558728
352.197	0.49638794
352.414	0.52259203
352.63	0.53827845
352.846	0.56028508
353.062	0.5433848
353.278	0.53149311
353.495	0.55211791
353.711	0.55476744
353.927	0.55544461
354.143	0.55501438
354.359	0.54478195
354.575	0.54608878
354.792	0.56329298
355.008	0.54121484
355.224	0.53011304
355.44	0.52118628
355.656	0.51856614
355.872	0.52841574
356.088	0.5662347
356.304	0.57319152
356.52	0.58798671
356.736	0.60152207
356.952	0.61421583
357.168	0.61791772
357.384	0.62810728
357.6	0.60083705
357.816	0.60478473
358.032	0.61317877
358.248	0.63281049
358.464	0.63382635
358.679	0.64547053
358.895	0.64340426
359.111	0.65761178
359.327	0.64251438
359.543	0.64393858
359.759	0.64760258
359.974	0.65096362
360.19	0.64873181
360.406	0.65028518
360.622	0.64993273
360.838	0.65176279
361.053	0.659381
361.269	0.66622702
361.485	0.66984277
361.701	0.68083032
361.916	0.67675465
362.132	0.67641791
362.348	0.68491067
362.563	0.68693672
362.779	0.6741544
362.995	0.68063582
363.21	0.68613619
363.426	0.69208698
363.641	0.69529246
363.857	0.70707903
364.073	0.70328575
364.288	0.70265308
364.504	0.71799076
364.719	0.71959645
364.935	0.72143748
365.15	0.72609719
365.366	0.72905451
365.581	0.74557776
365.797	0.75125192
366.012	0.73814263
366.228	0.73013556
366.443	0.74854482
366.658	0.75214968
366.874	0.74307827
367.089	0.74950564
367.305	0.75744029
367.52	0.76587055
367.735	0.77065704
367.951	0.76052256
368.166	0.76891275
368.381	0.78768943
368.597	0.77967214
368.812	0.78955691
369.027	0.7942676
369.243	0.80167424
369.458	0.82537821
369.673	0.8288179
369.888	0.82701956
370.104	0.82276701
370.319	0.82723559
370.534	0.82619546
370.749	0.8289374
370.964	0.82827055
371.179	0.8250598
371.395	0.82048357
371.61	0.83065254
371.825	0.81640925
372.04	0.81931185
372.255	0.81751959
372.47	0.80784336
372.685	0.80189041
372.9	0.80336569
373.115	0.80077952
373.33	0.80962904
373.545	0.81333034
373.76	0.82426666
373.975	0.82429447
374.19	0.82779283
374.405	0.83694583
374.62	0.85424504
374.835	0.87348866
375.05	0.87718386
375.265	0.87883729
375.48	0.88700285
375.695	0.91181412
375.91	0.90663443
376.125	0.88755734
376.339	0.86894219
376.554	0.87230446
376.769	0.86999789
376.984	0.86958688
377.199	0.87198348
377.414	0.87473307
377.628	0.8969587
377.843	0.90999313
378.058	0.91610531
378.273	0.92594202
378.487	0.93342899
378.702	0.93531026
378.917	0.93814754
379.131	0.92835118
379.346	0.91751904
379.561	0.91143185
379.775	0.90536679
379.99	0.897358
380.205	0.88406468
380.419	0.87940479
380.634	0.87190816
380.848	0.88706953
381.063	0.88985344
381.278	0.90504474
381.492	0.90250117
381.707	0.91986295
381.921	0.9243393
382.136	0.94225567
382.35	0.93771204
382.565	0.93573081
382.779	0.93652208
382.994	0.94503148
383.208	0.93611977
383.422	0.95149891
383.637	0.95174137
383.851	0.96110076
384.066	0.97426361
384.28	0.97937977
384.494	0.98637519
384.709	0.99607948
384.923	0.99431373
385.137	0.98544276
385.352	0.98481807
385.566	0.99067935
385.78	0.98649277
385.995	0.98163929
386.209	0.97520241
386.423	0.98439327
386.637	0.99443927
386.852	0.98737612
387.066	0.9847637
387.28	0.98065433
387.494	0.99504459
387.708	1.00135633
387.923	0.99771074
388.137	1.00754102
388.351	1.02051947
388.565	1.03051206
388.779	1.03877504
388.993	1.05117514
389.207	1.05958066
389.421	1.06631914
389.635	1.05936139
389.85	1.0548628
390.064	1.04972664
390.278	1.05323885
390.492	1.05283843
390.706	1.05606692
390.92	1.05617928
391.134	1.06904984
391.348	1.09387151
391.561	1.09308192
391.775	1.09302114
391.989	1.08351358
392.203	1.09057573
392.417	1.09780913
392.631	1.10702835
392.845	1.0922229
393.059	1.10885846
393.273	1.10880651
393.486	1.10471586
393.7	1.09376063
393.914	1.10375592
394.128	1.09803187
394.342	1.09884651
394.555	1.08153844
394.769	1.08644751
394.983	1.098047
395.197	1.11405946
395.41	1.10833825
395.624	1.11728545
395.838	1.11848283
396.051	1.15001694
396.265	1.14612362
396.479	1.15183451
396.692	1.14904438
396.906	1.14842433
397.12	1.14338649
397.333	1.15948864
397.547	1.14861879
397.76	1.16445946
397.974	1.1676135
398.187	1.17397571
398.401	1.18739361
398.614	1.19134445
398.828	1.18902493
399.041	1.19369936
399.255	1.18877653
399.468	1.19058518
399.682	1.19120504
399.895	1.19376241
400.109	1.19541431
400.322	1.19325391
400.536	1.18268299
400.749	1.19791455
400.962	1.20385588
401.176	1.20050336
401.389	1.19535656
401.602	1.18321106
401.816	1.1916211
402.029	1.20815881
402.242	1.19975502
402.456	1.19727227
402.669	1.19238528
402.882	1.1830302
403.095	1.20478513
403.309	1.20413631
403.522	1.2076097
403.735	1.20871744
403.948	1.21204564
404.161	1.24267785
404.375	1.2556677
404.588	1.25978651
404.801	1.26563176
405.014	1.25742278
405.227	1.27423871
405.44	1.28281188
405.653	1.28221219
405.866	1.27578508
406.079	1.26878547
406.293	1.2653747
406.506	1.27144436
406.719	1.26660239
406.932	1.26116456
407.145	1.24770914
407.358	1.27198549
407.571	1.26649951
407.784	1.27462262
407.996	1.28219874
408.209	1.27162011
408.422	1.26927752
408.635	1.27882981
408.848	1.27426196
409.061	1.27013599
409.274	1.26851806
409.487	1.26260073
409.7	1.27301935
409.912	1.28070738
410.125	1.28033491
410.338	1.28059897
410.551	1.28760742
410.764	1.28687493
410.976	1.29231869
411.189	1.29122497
411.402	1.28620984
411.615	1.29480967
411.827	1.29534292
412.04	1.30088999
412.253	1.30220641
412.465	1.29923932
412.678	1.29741505
412.891	1.30709399
413.103	1.2848889
413.316	1.2835932
413.529	1.29246174
413.741	1.30153088
413.954	1.30742394
414.166	1.31255089
414.379	1.30930557
414.591	1.32719919
414.804	1.32263095
415.016	1.31600649
415.229	1.30856498
415.441	1.30210798
415.654	1.30809639
415.866	1.31043025
416.079	1.31326168
416.291	1.31256827
416.504	1.32442955
416.716	1.32801549
416.928	1.3351828
417.141	1.32678396
417.353	1.33240362
417.566	1.31895556
417.778	1.32447213
417.99	1.3060584
418.203	1.29945583
418.415	1.29764931
418.627	1.30303343
418.839	1.29865343
419.052	1.31701285
419.264	1.31657117
419.476	1.32667467
419.688	1.33378983
419.901	1.33497965
420.113	1.33091165
420.325	1.32868964
420.537	1.31382578
420.749	1.31992971
420.961	1.32035212
421.174	1.3184098
421.386	1.3118906
421.598	1.31155024
421.81	1.3120373
422.022	1.31387754
422.234	1.30966813
422.446	1.30627767
422.658	1.30442989
422.87	1.30912204
423.082	1.30852227
423.294	1.30491178
423.506	1.30779827
423.718	1.30504972
423.93	1.29894191
424.142	1.29417595
424.354	1.28811937
424.566	1.28573457
424.778	1.28617502
424.99	1.28113364
425.202	1.27604242
425.414	1.27754512
425.625	1.28336058
425.837	1.27925281
426.049	1.28394052
426.261	1.28016606
426.473	1.27499787
426.684	1.27548668
426.896	1.28012174
427.108	1.27131689
427.32	1.27673104
427.531	1.26915604
427.743	1.26878881
427.955	1.27779645
428.167	1.27422943
428.378	1.26745516
428.59	1.26911262
428.802	1.26529657
429.013	1.26113263
429.225	1.25664114
429.436	1.24771236
429.648	1.25075372
429.86	1.25154101
430.071	1.24884756
430.283	1.24671628
430.494	1.24411033
430.706	1.243874
430.917	1.24011843
431.129	1.23517466
431.34	1.22930873
431.552	1.22862478
431.763	1.22299373
431.975	1.22435488
432.186	1.21640836
432.398	1.21427369
432.609	1.20323678
432.821	1.20122985
433.032	1.19601667
433.243	1.1916983
433.455	1.18716523
433.666	1.18703147
433.877	1.18839774
434.089	1.18529796
434.3	1.17818186
434.511	1.16913846
434.723	1.16519223
434.934	1.15663945
435.145	1.14824133
435.356	1.13887607
435.568	1.13711858
435.779	1.13255008
435.99	1.12715853
436.201	1.12251487
436.412	1.11917898
436.624	1.11971573
436.835	1.11801041
437.046	1.11814199
437.257	1.11476092
437.468	1.11939931
437.679	1.11921774
437.89	1.11697105
438.101	1.11374917
438.312	1.10956002
438.523	1.10237589
438.734	1.09925983
438.945	1.0929945
439.156	1.08505006
439.367	1.08218895
439.578	1.07932099
439.789	1.07230525
440	1.06936906
440.211	1.06364457
440.422	1.05933758
440.633	1.05867378
440.844	1.05124526
441.055	1.04478132
441.266	1.04376832
441.477	1.03671438
441.687	1.03304603
441.898	1.02816571
442.109	1.02025983
442.32	1.0163073
442.531	1.00860128
442.741	0.99861088
442.952	0.99524858
443.163	0.99117523
443.374	0.98480927
443.584	0.97920487
443.795	0.97519995
444.006	0.97146004
444.216	0.9680524
444.427	0.96047822
444.638	0.95429426
444.848	0.94869507
445.059	0.94392962
445.27	0.93790904
445.48	0.93227971
445.691	0.92799711
445.901	0.92403085
446.112	0.91867212
446.323	0.912652
446.533	0.90679794
446.744	0.90054826
446.954	0.89465851
447.165	0.88877105
447.375	0.88513261
447.586	0.88103708
447.796	0.87703288
448.006	0.87229208
448.217	0.86899322
448.427	0.86440024
448.638	0.85829779
448.848	0.85081328
449.058	0.84427932
449.269	0.8389657
449.479	0.83397786
449.689	0.82789901
449.9	0.8229451
450.11	0.8182958
450.32	0.81521574
450.531	0.80950378
450.741	0.80375773
450.951	0.79901652
451.161	0.79337317
451.372	0.78809262
451.582	0.78576732
451.792	0.77908607
452.002	0.77420189
452.212	0.76862864
452.422	0.76357728
452.633	0.75792861
452.843	0.75364615
453.053	0.74531299
453.263	0.74116394
453.473	0.73621377
453.683	0.73218306
453.893	0.72585505
454.103	0.72258702
454.313	0.71699198
454.523	0.7125997
454.733	0.70761024
454.943	0.70355941
455.153	0.69925786
455.363	0.69480215
455.573	0.68976254
455.783	0.68587971
455.993	0.6812028
456.203	0.67740977
456.413	0.67263775
456.623	0.66699528
456.833	0.66387447
457.042	0.65892636
457.252	0.65403008
457.462	0.64949003
457.672	0.64464805
457.882	0.64017673
458.091	0.63585996
458.301	0.63042858
458.511	0.62603956
458.721	0.62173462
458.931	0.61742262
459.14	0.61313453
459.35	0.60961324
459.56	0.60602819
459.769	0.60287277
459.979	0.59868294
460.189	0.59453653
460.398	0.59048145
460.608	0.5867726
460.817	0.58251493
461.027	0.57823265
461.237	0.57378463
461.446	0.56987449
461.656	0.56663914
461.865	0.56283983
462.075	0.55891081
462.284	0.55529676
462.494	0.55159273
462.703	0.54726102
462.913	0.54397498
463.122	0.53981867
463.332	0.53633727
463.541	0.53324939
463.751	0.52955198
463.96	0.52621911
464.169	0.52325893
464.379	0.52010917
464.588	0.51697635
464.797	0.51368284
465.007	0.51009281
465.216	0.50684649
465.425	0.50389777
465.635	0.50097779
465.844	0.49753449
466.053	0.49437428
466.263	0.49139136
466.472	0.48828781
466.681	0.48531205
466.89	0.48192208
467.099	0.47869459
467.309	0.47583731
467.518	0.47324135
467.727	0.47020394
467.936	0.46717501
468.145	0.46446383
468.354	0.46212334
468.563	0.45943445
468.772	0.45673831
468.982	0.45390592
469.191	0.45163264
469.4	0.4492398
469.609	0.44665135
469.818	0.44427532
470.027	0.44177592
470.236	0.43916714
470.445	0.43681308
470.654	0.43393182
470.863	0.43136484
471.072	0.42909935
471.28	0.42622363
471.489	0.42407809
471.698	0.42182377
471.907	0.41951338
472.116	0.41770517
472.325	0.41546603
472.534	0.41338897
472.743	0.41148206
472.951	0.40970713
473.16	0.40796015
473.369	0.40606599
473.578	0.40416254
473.786	0.40258784
473.995	0.40059831
474.204	0.39895886
474.413	0.3968372
474.621	0.39485186
474.83	0.39336685
475.039	0.3916689
475.247	0.38998561
475.456	0.38856523
475.665	0.38702265
475.873	0.385503
476.082	0.38390239
476.291	0.38222868
476.499	0.38069563
476.708	0.37894391
476.916	0.37748878
477.125	0.37602836
477.333	0.37471052
477.542	0.37351356
477.75	0.37222099
477.959	0.37122372
478.167	0.37019173
478.376	0.36880621
478.584	0.36766282
478.793	0.36647797
479.001	0.36526862
479.209	0.36407959
479.418	0.36279541
479.626	0.36171946
479.834	0.36074817
480.043	0.35964082
480.251	0.35853888
480.459	0.35751534
480.668	0.35672776
480.876	0.3557843
481.084	0.35497238
481.293	0.35409617
481.501	0.35330297
481.709	0.35263833
481.917	0.35200279
482.125	0.35120114
482.334	0.35055116
482.542	0.34982085
482.75	0.34918179
482.958	0.34855042
483.166	0.34779997
483.374	0.34711586
483.583	0.34655583
483.791	0.3459133
483.999	0.34525274
484.207	0.34474419
484.415	0.34425907
484.623	0.34380721
484.831	0.34339092
485.039	0.34299255
485.247	0.34270119
485.455	0.34249443
485.663	0.34210668
485.871	0.34173174
486.079	0.34141739
486.287	0.34116524
486.495	0.34073513
486.702	0.34031205
486.91	0.33992115
487.118	0.33973298
487.326	0.33953727
487.534	0.33931632
487.742	0.33908604
487.95	0.33904556
488.157	0.33909302
488.365	0.33909902
488.573	0.33899887
488.781	0.33897367
488.988	0.33912489
489.196	0.33927171
489.404	0.33938077
489.612	0.33932305
489.819	0.33944164
490.027	0.33959885
490.235	0.33972949
490.442	0.3398579
490.65	0.34000044
490.857	0.34020386
491.065	0.34052911
491.273	0.34077305
491.48	0.34106693
491.688	0.3412309
491.895	0.3414656
492.103	0.34158464
492.31	0.34182224
492.518	0.34206324
492.725	0.3424606
492.933	0.34277467
493.14	0.34320838
493.348	0.34359152
493.555	0.34403604
493.763	0.34450732
493.97	0.34492676
494.177	0.34530022
494.385	0.34574098
494.592	0.34623753
494.8	0.34676052
495.007	0.34736634
495.214	0.34793326
495.422	0.34854914
495.629	0.349107
495.836	0.34971414
496.043	0.3504009
496.251	0.35101943
496.458	0.35166154
496.665	0.3522477
496.872	0.35288666
497.08	0.35358744
497.287	0.35416348
497.494	0.35485983
497.701	0.35564953
497.908	0.35642195
498.115	0.3571023
498.322	0.35784087
498.53	0.35853828
498.737	0.35931841
498.944	0.36000216
499.151	0.36076058
499.358	0.36156545
499.565	0.36251393
499.772	0.36346846
499.979	0.36438308
500.186	0.36531401
500.393	0.36620679
500.6	0.36712389
500.807	0.36799057
501.014	0.36890557
501.221	0.36974875
501.427	0.3706027
501.634	0.3716431
501.841	0.37265141
502.048	0.37360513
502.255	0.37453494
502.462	0.3756435
502.669	0.37685326
502.875	0.37803592
503.082	0.37909365
503.289	0.3802235
503.496	0.38138296
503.702	0.38248363
503.909	0.38347555
504.116	0.38448684
504.323	0.38560713
504.529	0.38671067
504.736	0.38788623
504.943	0.38891044
505.149	0.39026774
505.356	0.39158596
505.563	0.39283034
505.769	0.39408288
505.976	0.39534901
506.182	0.39664681
506.389	0.39811336
506.595	0.3994205
506.802	0.4006807
507.008	0.40205785
507.215	0.40335551
507.421	0.40475711
507.628	0.40601426
507.834	0.40728764
508.041	0.40861096
508.247	0.4099515
508.454	0.41133
508.66	0.41257086
508.866	0.41395882
509.073	0.41541741
509.279	0.41685501
509.486	0.41830099
509.692	0.41972101
509.898	0.42115094
510.105	0.42273268
510.311	0.42404251
510.517	0.42549558
510.723	0.42699346
510.93	0.4283111
511.136	0.42985545
511.342	0.43120243
511.548	0.43273098
511.754	0.43444475
511.961	0.43603139
512.167	0.43760761
512.373	0.43922538
512.579	0.44079267
512.785	0.44248196
512.991	0.44405357
513.197	0.44560261
513.404	0.44724389
513.61	0.44887354
513.816	0.45037011
514.022	0.45193084
514.228	0.45351168
514.434	0.45508833
514.64	0.45670119
514.846	0.45828942
515.052	0.4599019
515.258	0.46166666
515.464	0.46335522
515.669	0.46511419
515.875	0.46687962
516.081	0.46859227
516.287	0.47040718
516.493	0.47212448
516.699	0.47380101
516.905	0.47550475
517.111	0.47717681
517.316	0.47894192
517.522	0.48083377
517.728	0.48265418
517.934	0.48452534
518.139	0.48638487
518.345	0.48814003
518.551	0.49001917
518.757	0.49184296
518.962	0.49352207
519.168	0.49527434
519.374	0.49697563
519.579	0.49890051
519.785	0.5009663
519.991	0.50290691
520.196	0.50478961
520.402	0.50666428
520.607	0.50860056
520.813	0.51064264
521.018	0.51247238
521.224	0.5141532
521.429	0.51597789
521.635	0.51785966
521.84	0.51962527
522.046	0.52155067
522.251	0.52339457
522.457	0.52536883
522.662	0.52757573
522.868	0.52955799
523.073	0.53156154
523.279	0.53373366
523.484	0.53558445
523.689	0.53760908
523.895	0.53971135
524.1	0.54159687
524.305	0.54351786
524.511	0.54552791
524.716	0.54752701
524.921	0.54965631
525.126	0.55171177
525.332	0.55374653
525.537	0.55579455
525.742	0.55816265
525.947	0.56028558
526.153	0.56234777
526.358	0.56443759
526.563	0.56642081
526.768	0.5683497
526.973	0.57039761
527.178	0.57233393
527.383	0.57439894
527.588	0.57649864
527.794	0.57843629
527.999	0.58050874
528.204	0.58259544
528.409	0.58458796
528.614	0.58669337
528.819	0.58885726
529.024	0.5908993
529.229	0.59297234
529.434	0.59527778
529.639	0.59751354
529.843	0.59978189
530.048	0.60194169
530.253	0.6041372
530.458	0.60645315
530.663	0.60881929
530.868	0.61104014
531.073	0.61308052
531.278	0.61511841
531.482	0.61717248
531.687	0.61920773
531.892	0.62128901
532.097	0.62326379
532.302	0.6254263
532.506	0.62773928
532.711	0.62994604
532.916	0.63214178
533.12	0.63433401
533.325	0.63650134
533.53	0.63892946
533.734	0.64108295
533.939	0.64330851
534.144	0.64567439
534.348	0.64805507
534.553	0.65028983
534.757	0.65243293
534.962	0.65462577
535.167	0.65705081
535.371	0.65931173
535.576	0.66168611
535.78	0.6639682
535.985	0.66637459
536.189	0.66871655
536.394	0.6709644
536.598	0.67297097
536.803	0.6752367
537.007	0.6774135
537.211	0.67982434
537.416	0.68206459
537.62	0.68442263
537.825	0.68667618
538.029	0.6893713
538.233	0.69164092
538.438	0.69407026
538.642	0.69611542
538.846	0.69860225
539.05	0.70093458
539.255	0.7032159
539.459	0.7053469
539.663	0.70767133
539.867	0.71000821
540.072	0.71255647
540.276	0.71472852
540.48	0.71722456
540.684	0.71960301
540.888	0.7222085
541.092	0.72452
541.297	0.72681912
541.501	0.72913254
541.705	0.73151787
541.909	0.73374479
542.113	0.73606543
542.317	0.73838152
542.521	0.74085866
542.725	0.74334311
542.929	0.74566026
543.133	0.74816893
543.337	0.75069035
543.541	0.75322711
543.745	0.75531126
543.949	0.75773019
544.153	0.76005775
544.357	0.76233258
544.56	0.76474926
544.764	0.76703394
544.968	0.76930175
545.172	0.77166637
545.376	0.77407064
545.58	0.77643516
545.783	0.77905088
545.987	0.7811363
546.191	0.78353211
546.395	0.78593552
546.598	0.78852354
546.802	0.79091003
547.006	0.79328623
547.21	0.7952142
547.413	0.79772254
547.617	0.80021056
547.821	0.80268419
548.024	0.80512651
548.228	0.80736916
548.431	0.80987127
548.635	0.81248862
548.839	0.81496361
549.042	0.81735512
549.246	0.8195274
549.449	0.82174499
549.653	0.82427353
549.856	0.82649931
550.06	0.82882798
550.263	0.83112944
550.467	0.83329009
550.67	0.83584013
550.874	0.83808632
551.077	0.84049727
551.28	0.84295992
551.484	0.84545922
551.687	0.8479011
551.891	0.85049244
552.094	0.85272991
552.297	0.85527764
552.501	0.85773091
552.704	0.86014545
552.907	0.86232546
553.11	0.86445194
553.314	0.86653644
553.517	0.86850137
553.72	0.87070559
553.923	0.87283364
554.127	0.87497542
554.33	0.87704479
554.533	0.87944457
554.736	0.88168463
554.939	0.88434332
555.142	0.8867542
555.345	0.88910388
555.549	0.8917528
555.752	0.89421104
555.955	0.89666263
556.158	0.89930298
556.361	0.90155749
556.564	0.90385786
556.767	0.90612956
556.97	0.9082977
557.173	0.91076142
557.376	0.91319491
557.579	0.91529635
557.782	0.91769544
557.984	0.92016722
558.187	0.92256975
558.39	0.9248828
558.593	0.92740178
558.796	0.92946001
558.999	0.93152805
559.202	0.93361237
559.404	0.93546906
559.607	0.9376275
559.81	0.93965602
560.013	0.94163219
560.216	0.94368399
560.418	0.94621005
560.621	0.9485985
560.824	0.95119546
561.026	0.95345304
561.229	0.95576903
561.432	0.9580277
561.634	0.96033988
561.837	0.96234861
562.04	0.96459224
562.242	0.96662246
562.445	0.96890847
562.647	0.97110455
562.85	0.97304879
563.053	0.97517096
563.255	0.97750857
563.458	0.97972502
563.66	0.98216241
563.863	0.98454007
564.065	0.9870228
564.268	0.9893869
564.47	0.99177061
564.672	0.99386695
564.875	0.99636006
565.077	0.99845831
565.28	1.0003944
565.482	1.00248658
565.684	1.004594
565.887	1.00690562
566.089	1.00935649
566.291	1.01104035
566.494	1.01318682
566.696	1.01518223
566.898	1.01739066
567.1	1.01979209
567.303	1.02174491
567.505	1.02372658
567.707	1.02573053
567.909	1.02762749
568.111	1.02975411
568.314	1.03180392
568.516	1.03368427
568.718	1.03564079
568.92	1.03756416
569.122	1.03970698
569.324	1.04184545
569.526	1.04363844
569.728	1.04571278
569.93	1.04754767
570.132	1.04952455
570.334	1.051448
570.536	1.0532461
570.738	1.05495336
570.94	1.0568866
571.142	1.05888946
571.344	1.06066365
571.546	1.06249632
571.748	1.06475113
571.95	1.06675349
572.152	1.06876201
572.354	1.07065235
572.555	1.07249355
572.757	1.07497711
572.959	1.07695085
573.161	1.07823099
573.363	1.0802827
573.564	1.08263252
573.766	1.08475998
573.968	1.08669936
574.17	1.08797574
574.371	1.09012019
574.573	1.09222982
574.775	1.0937266
574.976	1.09512428
575.178	1.09670752
575.38	1.09802239
575.581	1.09977102
575.783	1.10136553
575.985	1.10324325
576.186	1.10537058
576.388	1.10732472
576.589	1.10897225
576.791	1.11102167
576.992	1.11319611
577.194	1.11492743
577.395	1.11629327
577.597	1.11789304
577.798	1.11945099
578	1.12120983
578.201	1.12263528
578.402	1.12415096
578.604	1.12559292
578.805	1.12765827
579.007	1.12932726
579.208	1.13089941
579.409	1.1327507
579.611	1.13416906
579.812	1.13584864
580.013	1.13728457
580.215	1.13813288
580.416	1.13964506
580.617	1.14106598
580.818	1.14265122
581.019	1.14437838
581.221	1.14590575
581.422	1.14763448
581.623	1.14978365
581.824	1.1508258
582.025	1.15229934
582.226	1.153846
582.428	1.15546522
582.629	1.15699516
582.83	1.15796423
583.031	1.15911811
583.232	1.16133529
583.433	1.16313934
583.634	1.16426652
583.835	1.16552846
584.036	1.1666742
584.237	1.16849622
584.438	1.16988472
584.639	1.17040685
584.84	1.17156702
585.041	1.17250812
585.242	1.17364396
585.442	1.17485337
585.643	1.17627556
585.844	1.17730542
586.045	1.17913229
586.246	1.17980614
586.447	1.18122358
586.647	1.18222163
586.848	1.18330651
587.049	1.1842566
587.25	1.18535839
587.45	1.18610957
587.651	1.18758118
587.852	1.18863071
588.053	1.18998836
588.253	1.1908659
588.454	1.19198017
588.655	1.19281511
588.855	1.19357766
589.056	1.1944382
589.256	1.19540268
589.457	1.19604688
589.658	1.1972435
589.858	1.19777949
590.059	1.19877739
590.259	1.19981218
590.46	1.2004781
590.66	1.20128976
590.861	1.20222143
591.061	1.20307809
591.262	1.20441837
591.462	1.20565633
591.662	1.20663808
591.863	1.20753657
592.063	1.20858616
592.264	1.20948905
592.464	1.21033432
592.664	1.21106504
592.865	1.21182081
593.065	1.2121023
593.265	1.2132869
593.465	1.21362961
593.666	1.21445893
593.866	1.21503957
594.066	1.21534733
594.266	1.21604021
594.467	1.21641516
594.667	1.2166784
594.867	1.21729503
595.067	1.21770654
595.267	1.21814769
595.467	1.21876903
595.668	1.21911125
595.868	1.22024542
596.068	1.22106687
596.268	1.22181536
596.468	1.22240013
596.668	1.22332413
596.868	1.22367304
597.068	1.22444419
597.268	1.22495834
597.468	1.22530722
597.668	1.22571131
597.868	1.22609041
598.068	1.22608428
598.268	1.22682611
598.467	1.22716856
598.667	1.22777137
598.867	1.22773552
599.067	1.22841472
599.267	1.22874115
599.467	1.22908177
599.667	1.22873158
599.866	1.22914669
600.066	1.22921336
600.266	1.22950588
600.466	1.22965163
600.665	1.22983513
600.865	1.22991053
601.065	1.23102335
601.264	1.23106935
601.464	1.23133585
601.664	1.23218452
601.863	1.23265337
602.063	1.2331422
602.263	1.23303406
602.462	1.23323642
602.662	1.23359538
602.861	1.23341732
603.061	1.23343292
603.26	1.23317692
603.46	1.23288316
603.659	1.23327597
603.859	1.23315381
604.058	1.23293325
604.258	1.23313778
604.457	1.2335655
604.657	1.23342779
604.856	1.23347197
605.056	1.23357277
605.255	1.23338714
605.454	1.23317133
605.654	1.23317876
605.853	1.23268452
606.052	1.23227033
606.252	1.23222393
606.451	1.23230746
606.65	1.23268216
606.849	1.2323135
607.049	1.23208699
607.248	1.23154123
607.447	1.23185128
607.646	1.23203582
607.845	1.23157246
608.045	1.23080415
608.244	1.23103141
608.443	1.23089645
608.642	1.23093558
608.841	1.23044541
609.04	1.22982231
609.239	1.22995345
609.438	1.2298466
609.637	1.22945193
609.836	1.22921661
610.035	1.22880296
610.234	1.22863888
610.433	1.22852969
610.632	1.22795587
610.831	1.22736405
611.03	1.22703051
611.229	1.22684854
611.428	1.22658196
611.627	1.22617498
611.826	1.2253981
612.025	1.22502736
612.224	1.22462771
612.422	1.22394022
612.621	1.22282984
612.82	1.22214928
613.019	1.22128374
613.218	1.22090569
613.416	1.21995953
613.615	1.21923605
613.814	1.21837933
614.012	1.21788009
614.211	1.21705975
614.41	1.21649535
614.608	1.21587578
614.807	1.21543866
615.006	1.21478686
615.204	1.21400471
615.403	1.21360294
615.602	1.2131269
615.8	1.21212966
615.999	1.21094216
616.197	1.20999529
616.396	1.20915266
616.594	1.208483
616.793	1.20751319
616.991	1.20660168
617.19	1.20613418
617.388	1.2057849
617.586	1.20499984
617.785	1.20412565
617.983	1.20350441
618.182	1.20250222
618.38	1.20131298
618.578	1.2004037
618.777	1.19945316
618.975	1.19881668
619.173	1.19805245
619.372	1.19734153
619.57	1.19650646
619.768	1.19592819
619.966	1.19478424
620.165	1.19315944
620.363	1.19204781
620.561	1.19083066
620.759	1.18953064
620.957	1.18864169
621.155	1.18730074
621.354	1.18650587
621.552	1.18629186
621.75	1.1849609
621.948	1.18424682
622.146	1.18310551
622.344	1.18159846
622.542	1.18075747
622.74	1.17900072
622.938	1.17764748
623.136	1.17694804
623.334	1.17585146
623.532	1.17463315
623.73	1.17398922
623.928	1.17278858
624.126	1.17229656
624.324	1.17131053
624.522	1.16964963
624.719	1.16796172
624.917	1.16677434
625.115	1.16505487
625.313	1.16382596
625.511	1.16236131
625.708	1.16050919
625.906	1.15922717
626.104	1.15784441
626.302	1.15643079
626.499	1.15516647
626.697	1.15365486
626.895	1.15214822
627.093	1.15112946
627.29	1.14979961
627.488	1.14854701
627.686	1.14750498
627.883	1.14627763
628.081	1.14470136
628.278	1.14356914
628.476	1.14191112
628.673	1.14048428
628.871	1.13915999
629.068	1.1375818
629.266	1.13601152
629.463	1.13488216
629.661	1.1332605
629.858	1.13197911
630.056	1.13056045
630.253	1.12943612
630.451	1.12788909
630.648	1.12632082
630.845	1.1247057
631.043	1.12305525
631.24	1.12174379
631.438	1.11978423
631.635	1.11771222
631.832	1.11597339
632.029	1.11456222
632.227	1.11280731
632.424	1.1112646
632.621	1.10924929
632.818	1.10792144
633.016	1.10626854
633.213	1.10465728
633.41	1.10264462
633.607	1.10091936
633.804	1.09917092
634.001	1.09738231
634.199	1.09540069
634.396	1.09385271
634.593	1.09195745
634.79	1.09060385
634.987	1.08893172
635.184	1.08728197
635.381	1.08569906
635.578	1.08432335
635.775	1.08270162
635.972	1.08137806
636.169	1.07971215
636.366	1.07825548
636.563	1.07649887
636.76	1.074755
636.957	1.07300679
637.153	1.07073937
637.35	1.06892682
637.547	1.06685739
637.744	1.06458735
637.941	1.06295102
638.138	1.06083298
638.334	1.05894098
638.531	1.05753268
638.728	1.05553339
638.925	1.05392607
639.121	1.05253939
639.318	1.05049494
639.515	1.04880304
639.711	1.0472693
639.908	1.04505074
640.105	1.04320061
640.301	1.0411902
640.498	1.03901517
640.695	1.03740252
640.891	1.03566622
641.088	1.03335077
641.284	1.03162455
641.481	1.02993171
641.677	1.02811328
641.874	1.02615446
642.07	1.02406828
642.267	1.02247334
642.463	1.02049449
642.66	1.01885074
642.856	1.0166444
643.053	1.01436095
643.249	1.0125333
643.445	1.01046632
643.642	1.00803616
643.838	1.00623153
644.034	1.00407011
644.231	1.00208461
644.427	1.00028771
644.623	0.99821412
644.82	0.99643063
645.016	0.99440611
645.212	0.99233716
645.408	0.99017493
645.604	0.98840682
645.801	0.98642191
645.997	0.98425163
646.193	0.98186019
646.389	0.97988779
646.585	0.97792752
646.781	0.97591821
646.977	0.97376841
647.173	0.97168429
647.37	0.96963764
647.566	0.96765286
647.762	0.9655946
647.958	0.9636186
648.154	0.96150761
648.35	0.95943488
648.546	0.95714058
648.742	0.95517769
648.937	0.95313881
649.133	0.95118245
649.329	0.94888799
649.525	0.94684222
649.721	0.94473876
649.917	0.94292932
650.113	0.94087504
650.309	0.93890111
650.504	0.93664551
650.7	0.93459064
650.896	0.93239821
651.092	0.93020164
651.287	0.92794944
651.483	0.92566028
651.679	0.92340455
651.875	0.92129853
652.07	0.91909841
652.266	0.9169324
652.462	0.91476307
652.657	0.91242583
652.853	0.91016847
653.048	0.90801105
653.244	0.90579292
653.44	0.90358442
653.635	0.90125528
653.831	0.89892508
654.026	0.89701872
654.222	0.89487715
654.417	0.89278502
654.613	0.89047005
654.808	0.88810566
655.004	0.88612068
655.199	0.88410781
655.394	0.88198629
655.59	0.87995953
655.785	0.87748984
655.98	0.87535213
656.176	0.87314633
656.371	0.87102517
656.566	0.86889625
656.762	0.86654741
656.957	0.86417608
657.152	0.86208138
657.348	0.85975729
657.543	0.85773402
657.738	0.85540466
657.933	0.85304307
658.128	0.85062734
658.324	0.84827606
658.519	0.84607205
658.714	0.84391621
658.909	0.84147418
659.104	0.83923539
659.299	0.83693158
659.494	0.83466491
659.689	0.83257314
659.884	0.83017341
660.079	0.82780626
660.274	0.825566
660.469	0.8233592
660.664	0.82131517
660.859	0.81919757
661.054	0.81694255
661.249	0.81475827
661.444	0.81262791
661.639	0.8103984
661.834	0.80802453
662.029	0.80566886
662.224	0.80324564
662.418	0.80098525
662.613	0.79881369
662.808	0.79641691
663.003	0.79425451
663.198	0.79213816
663.392	0.78972468
663.587	0.78772293
663.782	0.78549851
663.977	0.78319129
664.171	0.78105651
664.366	0.77870229
664.561	0.77621379
664.755	0.77399877
664.95	0.77166123
665.144	0.76928936
665.339	0.76723853
665.534	0.76505414
665.728	0.76294922
665.923	0.76082579
666.117	0.75862032
666.312	0.75637962
666.506	0.7541599
666.701	0.75167402
666.895	0.74941398
667.09	0.7470658
667.284	0.74487773
667.479	0.74250938
667.673	0.74018946
667.867	0.73791797
668.062	0.73567419
668.256	0.73343332
668.45	0.73140775
668.645	0.72912945
668.839	0.72703186
669.033	0.72479154
669.228	0.72258226
669.422	0.72042968
669.616	0.71820628
669.81	0.71598772
670.004	0.71374363
670.199	0.71158624
670.393	0.70956069
670.587	0.70740368
670.781	0.70530273
670.975	0.70304565
671.169	0.70055367
671.363	0.69837625
671.558	0.69598772
671.752	0.69363748
671.946	0.69141509
672.14	0.68910149
672.334	0.68687874
672.528	0.68488003
672.722	0.68251611
672.916	0.68042333
673.11	0.6781475
673.304	0.67612673
673.497	0.67392491
673.691	0.67194408
673.885	0.66970346
674.079	0.66772971
674.273	0.66561684
674.467	0.66364624
674.661	0.66139999
674.854	0.65918825
675.048	0.65678033
675.242	0.65455268
675.436	0.65220434
675.629	0.64988853
675.823	0.64754508
676.017	0.64541638
676.211	0.64317313
676.404	0.64096074
676.598	0.63874087
676.792	0.63658243
676.985	0.63435145
677.179	0.63205084
677.372	0.62971397
677.566	0.62755338
677.76	0.62560366
677.953	0.62336599
678.147	0.6212531
678.34	0.61911943
678.534	0.61697129
678.727	0.61480855
678.921	0.61262837
679.114	0.61017924
679.307	0.60812678
679.501	0.60590716
679.694	0.6038435
679.888	0.60177549
680.081	0.59984759
680.274	0.59759568
680.468	0.59555015
680.661	0.59336471
680.854	0.59141388
681.048	0.58927177
681.241	0.58713688
681.434	0.58497246
681.627	0.58298818
681.821	0.58094771
682.014	0.57888628
682.207	0.57666769
682.4	0.57471046
682.593	0.57276197
682.786	0.57078737
682.98	0.56893034
683.173	0.5670935
683.366	0.5652811
683.559	0.56346818
683.752	0.5615022
683.945	0.55943562
684.138	0.55739067
684.331	0.555244
684.524	0.55324087
684.717	0.55117096
684.91	0.54915485
685.103	0.54709505
685.296	0.54497504
685.489	0.54289958
685.682	0.54080584
685.874	0.53885029
686.067	0.536787
686.26	0.53461922
686.453	0.53252986
686.646	0.53053191
686.839	0.52854855
687.031	0.52661693
687.224	0.52440803
687.417	0.52252237
687.61	0.52062351
687.802	0.51883498
687.995	0.51707015
688.188	0.51531891
688.38	0.51346923
688.573	0.51170064
688.766	0.50979466
688.958	0.5078835
689.151	0.5058305
689.343	0.50383401
689.536	0.50181257
689.729	0.49993881
689.921	0.49796783
690.114	0.49588257
690.306	0.49396963
690.499	0.49217529
690.691	0.49038187
690.884	0.48850145
691.076	0.48657887
691.268	0.48469203
691.461	0.48282513
691.653	0.48101551
691.846	0.47908275
692.038	0.47720605
692.23	0.47530868
692.423	0.47340873
692.615	0.47153354
692.807	0.4697664
692.999	0.46792541
693.192	0.46615373
693.384	0.46438662
693.576	0.4625392
693.768	0.46075364
693.961	0.45892718
694.153	0.45724101
694.345	0.45538355
694.537	0.45355744
694.729	0.4517288
694.921	0.44990294
695.113	0.44816701
695.305	0.44638988
695.498	0.44453886
695.69	0.44288745
695.882	0.44108992
696.074	0.4394309
696.266	0.43765841
696.458	0.43582435
696.65	0.43410496
696.842	0.43232677
697.033	0.43052938
697.225	0.42878504
697.417	0.42701733
697.609	0.42528784
697.801	0.42354592
697.993	0.42177732
698.185	0.42001934
698.376	0.41829507
698.568	0.41657208
698.76	0.41493972
698.952	0.4133491
699.144	0.41182614
699.335	0.41028063
699.527	0.40866971
699.719	0.40703364
699.91	0.40543715
700.102	0.40368207
700.294	0.40202155
700.485	0.40031034
700.677	0.39861134
700.869	0.39706583
701.06	0.39547602
701.252	0.39385938
701.443	0.39227798
701.635	0.39061689
701.826	0.38898074
702.018	0.38743786
702.209	0.38590178
702.401	0.3843749
702.592	0.38282135
702.784	0.38129749
702.975	0.37976727
703.166	0.37826122
703.358	0.3766408
703.549	0.37504548
703.741	0.37345744
703.932	0.37190253
704.123	0.37035641
704.315	0.3688733
704.506	0.36743172
704.697	0.36585805
704.888	0.36441463
705.08	0.3629048
705.271	0.36142356
705.462	0.35985265
705.653	0.35832189
705.844	0.35679866
706.035	0.35542721
706.227	0.35393677
706.418	0.3525046
706.609	0.3511886
706.8	0.34988726
706.991	0.34855785
707.182	0.34719979
707.373	0.34575297
707.564	0.3443525
707.755	0.34298693
707.946	0.3415203
708.137	0.34010386
708.328	0.33872344
708.519	0.33740453
708.71	0.33606662
708.901	0.33466264
709.092	0.33330296
709.283	0.33197062
709.473	0.33057731
709.664	0.32927436
709.855	0.3278499
710.046	0.32657466
710.237	0.32531642
710.427	0.32389273
710.618	0.32250303
710.809	0.32108721
711	0.31967627
711.19	0.31835552
711.381	0.31708269
711.572	0.31584349
711.762	0.31479624
711.953	0.31359908
712.144	0.31245489
712.334	0.31121567
712.525	0.31005925
712.715	0.30871827
712.906	0.30736686
713.097	0.30593016
713.287	0.30460245
713.478	0.3032639
713.668	0.30199944
713.859	0.30064052
714.049	0.29950214
714.239	0.29842163
714.43	0.29737586
714.62	0.29637449
714.811	0.29530159
715.001	0.29427022
715.191	0.29321504
715.382	0.29193111
715.572	0.290643
715.762	0.28931058
715.953	0.28801296
716.143	0.28676072
716.333	0.28546529
716.523	0.28421415
716.714	0.28307621
716.904	0.28190907
717.094	0.28085448
717.284	0.2797884
717.474	0.27877044
717.664	0.27778342
717.855	0.27672067
718.045	0.27568228
718.235	0.27460171
718.425	0.27341908
718.615	0.27221777
718.805	0.27101267
718.995	0.26987209
719.185	0.26875482
719.375	0.26764617
719.565	0.26657679
719.755	0.26554572
719.945	0.2646439
720.135	0.26369688
720.325	0.26270748
720.515	0.26173359
720.704	0.26076576
720.894	0.25976353
721.084	0.25876416
721.274	0.25764154
721.464	0.25661885
721.654	0.25569742
721.843	0.2548101
722.033	0.2539699
722.223	0.25308999
722.413	0.25226184
722.602	0.25141679
722.792	0.25050926
722.982	0.24961597
723.171	0.24876259
723.361	0.24782298
723.55	0.24701009
723.74	0.24612065
723.93	0.24524838
724.119	0.24440824
724.309	0.24333217
724.498	0.24223763
724.688	0.24114722
724.877	0.24002401
725.067	0.23893568
725.256	0.23784839
725.446	0.23678786
725.635	0.23587565
725.825	0.23496195
726.014	0.23410342
726.203	0.23326261
726.393	0.23240737
726.582	0.23147574
726.771	0.23051465
726.961	0.22956113
727.15	0.22865395
727.339	0.22777166
727.529	0.22693217
727.718	0.22609343
727.907	0.22535031
728.096	0.22462526
728.286	0.22389855
728.475	0.22315821
728.664	0.22240106
728.853	0.22171987
729.042	0.22089485
729.231	0.22013495
729.42	0.21928517
729.609	0.21844489
729.799	0.21753523
729.988	0.21665723
730.177	0.21566713
730.366	0.2147492
730.555	0.21375693
730.744	0.21287845
730.933	0.21202537
731.122	0.21119272
731.31	0.21042618
731.499	0.20966571
731.688	0.20899863
731.877	0.20838464
732.066	0.20773951
732.255	0.20703899
732.444	0.20639064
732.632	0.20563843
732.821	0.20492517
733.01	0.2042033
733.199	0.20353394
733.388	0.20285048
733.576	0.2022983
733.765	0.20170574
733.954	0.20117262
734.142	0.20048811
734.331	0.19981401
734.52	0.19905458
734.708	0.19831999
734.897	0.19749036
735.086	0.19668778
735.274	0.19586153
735.463	0.19513149
735.651	0.19442049
735.84	0.19374374
736.028	0.19303654
736.217	0.19243161
736.405	0.19187488
736.594	0.19134204
736.782	0.19073341
736.971	0.19012141
737.159	0.18947643
737.347	0.1888458
737.536	0.18807687
737.724	0.18731159
737.912	0.18644068
738.101	0.18564508
738.289	0.18480669
738.477	0.18408515
738.666	0.18332793
738.854	0.18274456
739.042	0.18214188
739.23	0.18167591
739.418	0.18127324
739.607	0.18096388
739.795	0.18061319
739.983	0.1802958
740.171	0.17986972
740.359	0.17945096
740.547	0.1789247
740.735	0.17832578
740.923	0.17770724
741.112	0.17704837
741.3	0.17635598
741.488	0.17564598
741.676	0.17492354
741.864	0.17432047
742.052	0.17382499
742.239	0.17321789
742.427	0.17263513
742.615	0.17208532
742.803	0.17156181
742.991	0.17107425
743.179	0.17063212
743.367	0.17016045
743.555	0.16987543
743.742	0.16960172
743.93	0.16937294
744.118	0.16900872
744.306	0.16857784
744.494	0.16795422
744.681	0.16737037
744.869	0.16668639
745.057	0.16597069
745.244	0.1652338
745.432	0.16468589
745.62	0.16419769
745.807	0.16390417
745.995	0.16351186
746.182	0.16306783
746.37	0.16271122
746.558	0.16234518
746.745	0.16191938
746.933	0.16147935
747.12	0.1609804
747.308	0.16053525
747.495	0.16012106
747.683	0.15963662
747.87	0.15913582
748.057	0.15868028
748.245	0.15813811
748.432	0.15754523
748.62	0.15700963
748.807	0.15655534
748.994	0.15612342
749.182	0.15576048
749.369	0.15537005
749.556	0.15495423
749.743	0.15455647
749.931	0.15417743
750.118	0.15381507
750.305	0.15340385
750.492	0.1530032
750.68	0.15268767
750.867	0.1525085
751.054	0.15234807
751.241	0.15210009
751.428	0.15178897
751.615	0.15158434
751.802	0.1513896
751.989	0.15104764
752.176	0.15074079
752.363	0.15038218
752.55	0.15008931
752.737	0.14980873
752.924	0.14935954
753.111	0.14880217
753.298	0.14830589
753.485	0.14776042
753.672	0.14724144
753.859	0.14665951
754.046	0.14607327
754.233	0.14568212
754.42	0.14537991
754.606	0.14506718
754.793	0.14484076
754.98	0.14462064
755.167	0.14440427
755.353	0.14425793
755.54	0.14397169
755.727	0.14366109
755.914	0.14331737
756.1	0.14300738
756.287	0.1426879
756.474	0.14226967
756.66	0.14175824
756.847	0.14127319
757.033	0.14079378
757.22	0.14043206
757.407	0.13997196
757.593	0.13950329
757.78	0.13908089
757.966	0.13881324
758.153	0.13852626
758.339	0.1382411
758.526	0.13797929
758.712	0.13772506
758.898	0.1376109
759.085	0.13750307
759.271	0.13736519
759.458	0.13734397
759.644	0.13739991
759.83	0.13735591
760.017	0.1373519
760.203	0.13724294
760.389	0.13709962
760.576	0.13686574
760.762	0.13652424
760.948	0.136016
761.134	0.13558193
761.32	0.13511018
761.507	0.1347301
761.693	0.134381
761.879	0.1340509
762.065	0.13378314
762.251	0.13358102
762.437	0.13334238
762.623	0.13308535
762.809	0.13279016
762.995	0.13255505
763.181	0.13233495
763.367	0.13223252
763.553	0.13217407
763.739	0.13210411
763.925	0.13198483
764.111	0.13182004
764.297	0.13173515
764.483	0.1316634
764.669	0.13142872
764.855	0.13116652
765.041	0.13089931
765.227	0.13063095
765.412	0.13035266
765.598	0.13000872
765.784	0.12975607
765.97	0.12956553
766.156	0.12941337
766.341	0.12931066
766.527	0.12923275
766.713	0.12921172
766.898	0.12917448
767.084	0.12903085
767.27	0.12888031
767.455	0.12880427
767.641	0.12870359
767.827	0.12864066
768.012	0.12851173
768.198	0.12843096
768.383	0.12828129
768.569	0.12815716
768.754	0.12800242
768.94	0.12795855
769.125	0.12788431
769.311	0.12779655
769.496	0.12759402
769.682	0.12755782
769.867	0.1274529
770.052	0.12732529
770.238	0.12701412
770.423	0.12670692
770.608	0.12651831
770.794	0.12635893
770.979	0.12612932
771.164	0.12590105
771.35	0.12566684
771.535	0.12550079
771.72	0.12532745
771.905	0.12516364
772.09	0.12507424
772.276	0.12501652
772.461	0.12507621
772.646	0.12505371
772.831	0.12493759
773.016	0.12495025
773.201	0.12494477
773.386	0.12498843
773.571	0.12483724
773.756	0.12460514
773.941	0.12438615
774.126	0.12433672
774.311	0.12418914
774.496	0.12403941
774.681	0.12382679
774.866	0.12371379
775.051	0.12366697
775.236	0.12374761
775.421	0.12378372
775.606	0.12385561
775.791	0.12386532
775.976	0.1238369
776.16	0.12380158
776.345	0.12365856
776.53	0.12339838
776.715	0.12318899
776.899	0.1229928
777.084	0.12279386
777.269	0.12268955
777.454	0.12263781
777.638	0.12264255
777.823	0.12268628
778.008	0.12255275
778.192	0.12233197
778.377	0.12216657
778.561	0.12186611
778.746	0.12159347
778.931	0.12142779
779.115	0.1211971
779.3	0.1210682
779.484	0.12101585
779.669	0.12103473
779.853	0.12114281
780.037	0.12122723
780.222	0.12115468
780.406	0.12109821
780.591	0.12102385
780.775	0.12088891
780.959	0.12067221
781.144	0.12040425
781.328	0.1201085
781.512	0.11981981
781.697	0.11959795
781.881	0.11932347
782.065	0.1190271
782.249	0.11862535
782.434	0.11830514
782.618	0.11800654
782.802	0.11775924
782.986	0.11751698
783.17	0.11730223
783.354	0.1172068
783.539	0.11728496
783.723	0.11735457
783.907	0.11751493
784.091	0.11767016
784.275	0.11776795
784.459	0.11781653
784.643	0.11779959
784.827	0.11771322
785.011	0.11759635
785.195	0.11739949
785.379	0.11721445
785.563	0.11711083
785.747	0.11700791
785.93	0.11688613
786.114	0.11672556
786.298	0.11661118
786.482	0.11650441
786.666	0.1163799
786.85	0.11625735
787.033	0.11626489
787.217	0.11640615
787.401	0.11661037
787.585	0.11678398
787.768	0.11687489
787.952	0.11699015
788.136	0.11706945
788.319	0.11704886
788.503	0.11694598
788.687	0.11692192
788.87	0.11689153
789.054	0.11686428
789.237	0.11688056
789.421	0.11683184
789.605	0.11683031
789.788	0.11688436
789.972	0.11682012
790.155	0.11673484
790.338	0.11670425
790.522	0.11661724
790.705	0.11664821
790.889	0.11662134
791.072	0.11656871
791.256	0.11653546
791.439	0.11652166
791.622	0.11653216
791.806	0.11656079
791.989	0.11646379
792.172	0.11647498
792.355	0.11635729
792.539	0.11629751
792.722	0.116257
792.905	0.11616702
793.088	0.11603238
793.271	0.11607374
793.455	0.1160961
793.638	0.11617027
793.821	0.11609695
794.004	0.11589659
794.187	0.11578256
794.37	0.11581019
794.553	0.11575924
794.736	0.11561178
794.919	0.11552646
795.102	0.11563663
795.285	0.11591377
795.468	0.11615493
795.651	0.11646828
795.834	0.11687561
796.017	0.11737532
796.2	0.11776807
796.383	0.11803174
796.566	0.11820577
796.749	0.11839927
796.931	0.11845758
797.114	0.11830244
797.297	0.11811954
797.48	0.11798573
797.663	0.11780891
797.845	0.11770257
798.028	0.11751297
798.211	0.11722641
798.393	0.11705394
798.576	0.11687343
798.759	0.11660047
798.941	0.11643554
799.124	0.11623027
799.307	0.11615045
799.489	0.11610321
799.672	0.11609189
799.854	0.11609566
800.037	0.11608419
800.219	0.11599872
800.402	0.11600135
800.584	0.11597436
800.767	0.11596428
800.949	0.11597372
801.132	0.11593833
801.314	0.11605508
801.496	0.11619246
801.679	0.11616952
801.861	0.11606083
802.043	0.11599811
802.226	0.11584099
802.408	0.11577705
802.59	0.11573695
802.772	0.11572537
802.955	0.11587033
803.137	0.11601468
803.319	0.11616234
803.501	0.11634274
803.684	0.11650694
803.866	0.11655478
804.048	0.11657966
804.23	0.11646337
804.412	0.11643109
804.594	0.11633443
804.776	0.11627144
804.958	0.11625988
805.14	0.11629185
805.322	0.11623717
805.504	0.11621671
805.686	0.11616821
805.868	0.1161067
806.05	0.11604233
806.232	0.11601477
806.414	0.11613216
806.596	0.11636387
806.778	0.11657564
806.96	0.1167646
807.141	0.11706442
807.323	0.11724216
807.505	0.1172468
807.687	0.11707309
807.869	0.11680958
808.05	0.11648714
808.232	0.11617376
808.414	0.11569687
808.595	0.11521213
808.777	0.11493286
808.959	0.11477187
809.14	0.11466098
809.322	0.11468539
809.504	0.11464772
809.685	0.11468855
809.867	0.11476505
810.048	0.11468635
810.23	0.1145621
810.411	0.11448739
810.593	0.11434769
810.774	0.11426566
810.956	0.11424691
811.137	0.11431093
811.319	0.11443657
811.5	0.11450701
811.681	0.11461878
811.863	0.1146981
812.044	0.11480163
812.225	0.11486814
812.407	0.11479823
812.588	0.11462186
812.769	0.11442144
812.951	0.11420162
813.132	0.11407798
813.313	0.11401474
813.494	0.11392668
813.675	0.11387998
813.857	0.11404443
814.038	0.11435083
814.219	0.11453211
814.4	0.1147376
814.581	0.11491287
814.762	0.11510871
814.943	0.1153372
815.124	0.11538743
815.305	0.11531148
815.486	0.11526929
815.667	0.11517874
815.848	0.11503951
816.029	0.11481592
816.21	0.11469898
816.391	0.11467696
816.572	0.11460213
816.753	0.11456271
816.934	0.11453123
817.115	0.11449427
817.295	0.11439975
817.476	0.11426203
817.657	0.11403688
817.838	0.11405722
818.019	0.11409988
818.199	0.11410513
818.38	0.11410593
818.561	0.11432725
818.741	0.11450375
818.922	0.11478723
819.103	0.11502957
819.283	0.11521636
819.464	0.11544178
819.645	0.11568108
819.825	0.11579183
820.006	0.11590307
820.186	0.11594434
820.367	0.11590318
820.547	0.1159014
820.728	0.11591351
820.908	0.11584161
821.089	0.11577517
821.269	0.11566635
821.45	0.115632
821.63	0.1156564
821.81	0.11558139
821.991	0.11547265
822.171	0.11548364
822.351	0.11555685
822.532	0.11567867
822.712	0.11574335
822.892	0.11583688
823.072	0.11607979
823.253	0.11623943
823.433	0.11632833
823.613	0.11638463
823.793	0.11640401
823.973	0.11651307
824.154	0.11655899
824.334	0.11657449
824.514	0.11666422
824.694	0.116887
824.874	0.11700423
825.054	0.11715212
825.234	0.11714361
825.414	0.1170701
825.594	0.11699428
825.774	0.11684182
825.954	0.11655339
826.134	0.11638154
826.314	0.11620666
826.494	0.11605248
826.674	0.11592074
826.854	0.11574963
827.033	0.11572447
827.213	0.11582815
827.393	0.1159529
827.573	0.11617121
827.753	0.11634184
827.932	0.11661901
828.112	0.11700817
828.292	0.11729016
828.472	0.11728387
828.651	0.11727987
828.831	0.1171719
829.011	0.11715823
829.19	0.11710422
829.37	0.11706897
829.549	0.11696246
829.729	0.11707786
829.909	0.1171061
830.088	0.11718502
830.268	0.11725319
830.447	0.11724144
830.627	0.11723129
830.806	0.11731403
830.986	0.11723591
831.165	0.11724312
831.344	0.11719614
831.524	0.11699662
831.703	0.11688566
831.883	0.11672946
832.062	0.11669106
832.241	0.11684476
832.421	0.11698962
832.6	0.11715233
832.779	0.11745681
832.958	0.11765698
833.138	0.11771973
833.317	0.11769229
833.496	0.11754818
833.675	0.11739381
833.854	0.11719975
834.034	0.11700426
834.213	0.11679555
834.392	0.11666688
834.571	0.11649429
834.75	0.11639696
834.929	0.11624427
835.108	0.11616725
835.287	0.11615748
835.466	0.11623753
835.645	0.11638956
835.824	0.11655617
836.003	0.11673128
836.182	0.11691118
836.361	0.11707288
836.54	0.11717069
836.719	0.11732122
836.897	0.11728009
837.076	0.11727143
837.255	0.11726763
837.434	0.11726677
837.613	0.11734031
837.791	0.11733498
837.97	0.1172144
838.149	0.11713063
838.328	0.11703015
838.506	0.11692106
838.685	0.11679844
838.864	0.11664591
839.042	0.11662912
839.221	0.11667371
839.4	0.11676669
839.578	0.11703655
839.757	0.11719574
839.935	0.11740294
840.114	0.11747083
840.292	0.11735347
840.471	0.11720388
840.649	0.11709953
840.828	0.11685414
841.006	0.11664809
841.185	0.11650933
841.363	0.11652094
841.541	0.11659835
841.72	0.11680218
841.898	0.11705627
842.076	0.11725896
842.255	0.11752325
842.433	0.11776909
842.611	0.11795661
842.789	0.11819557
842.968	0.11832974
843.146	0.11828297
843.324	0.11828592
843.502	0.11835219
843.68	0.11836749
843.859	0.11826942
844.037	0.11799142
844.215	0.11773245
844.393	0.11758115
844.571	0.11744762
844.749	0.11718536
844.927	0.11694893
845.105	0.11686053
845.283	0.11689602
845.461	0.11694887
845.639	0.11691598
845.817	0.11690482
845.995	0.11693099
846.173	0.11702468
846.351	0.11696378
846.529	0.11685174
846.706	0.11668928
846.884	0.11670887
847.062	0.11660557
847.24	0.1165259
847.418	0.11643842
847.595	0.1164619
847.773	0.11660968
847.951	0.11664245
848.129	0.11647914
848.306	0.11643208
848.484	0.1163781
848.662	0.11617067
848.839	0.11597653
849.017	0.11573349
849.194	0.1155599
849.372	0.11550935
849.549	0.11546063
849.727	0.11544224
849.905	0.11550573
850.082	0.11568521
850.26	0.11596327
850.437	0.11620359
850.614	0.11650463
850.792	0.11662888
850.969	0.1167135
851.147	0.11678989
851.324	0.11669919
851.501	0.11656985
851.679	0.11652035
851.856	0.11637485
852.033	0.11651377
852.211	0.11663515
852.388	0.1166978
852.565	0.11683055
852.742	0.11698718
852.92	0.11699919
853.097	0.11712122
853.274	0.11709291
853.451	0.11704412
853.628	0.11701297
853.805	0.11682983
853.982	0.1166251
854.159	0.11646315
854.336	0.11617117
854.514	0.11605665
854.691	0.11607988
854.868	0.11614109
855.045	0.11638053
855.221	0.11661289
855.398	0.11686748
855.575	0.11702949
855.752	0.11708757
855.929	0.11702566
856.106	0.1168802
856.283	0.11670836
856.46	0.11642359
856.637	0.11624
856.813	0.11603231
856.99	0.11578885
857.167	0.11561347
857.344	0.11563533
857.52	0.11553665
857.697	0.11556809
857.874	0.11548894
858.05	0.11563621
858.227	0.11573326
858.404	0.11584288
858.58	0.115877
858.757	0.11591609
858.933	0.11598759
859.11	0.11605888
859.287	0.11595835
859.463	0.11586516
859.64	0.11574546
859.816	0.11557763
859.993	0.11542488
860.169	0.1152207
860.345	0.11514814
860.522	0.11519117
860.698	0.11522773
860.875	0.11531738
861.051	0.11553585
861.227	0.11587764
861.404	0.11620649
861.58	0.1164572
861.756	0.11659038
861.932	0.11670042
862.109	0.11669119
862.285	0.11659225
862.461	0.11644149
862.637	0.11611924
862.813	0.11593131
862.99	0.11575566
863.166	0.11556064
863.342	0.11544299
863.518	0.11525388
863.694	0.11496893
863.87	0.11492932
864.046	0.11480147
864.222	0.11465537
864.398	0.11463304
864.574	0.11456192
864.75	0.11459482
864.926	0.11466305
865.102	0.11447066
865.278	0.11420331
865.454	0.11410015
865.63	0.11397223
865.805	0.11391668
865.981	0.11383244
866.157	0.11396598
866.333	0.11425435
866.509	0.11451074
866.684	0.11477209
866.86	0.1149675
867.036	0.11498348
867.212	0.11484768
867.387	0.11467097
867.563	0.11441168
867.739	0.11426416
867.914	0.11406729
868.09	0.11388415
868.265	0.11372456
868.441	0.11366483
868.617	0.1135501
868.792	0.11366954
868.968	0.11379362
869.143	0.11389723
869.319	0.11395601
869.494	0.11409318
869.67	0.11420667
869.845	0.11421701
870.02	0.11407567
870.196	0.11392295
870.371	0.11378077
870.546	0.11372659
870.722	0.1137454
870.897	0.11374373
871.072	0.11366676
871.248	0.11356164
871.423	0.11348894
871.598	0.11332682
871.773	0.11308374
871.949	0.11284754
872.124	0.11276325
872.299	0.11272218
872.474	0.11274454
872.649	0.11277964
872.824	0.1128775
872.999	0.11305421
873.174	0.11311327
873.349	0.11295994
873.524	0.11284736
873.699	0.11270063
873.874	0.1124527
874.049	0.11227012
874.224	0.11197297
874.399	0.11181012
874.574	0.11182154
874.749	0.1117917
874.924	0.11172626
875.099	0.11174552
875.274	0.11181531
875.449	0.11189245
875.623	0.11174362
875.798	0.11141866
875.973	0.11120791
876.148	0.11110504
876.322	0.11098695
876.497	0.11066742
876.672	0.11040393
876.846	0.11035201
877.021	0.11034356
877.196	0.11024784
877.37	0.11019525
877.545	0.11023092
877.72	0.11019672
877.894	0.11034968
878.069	0.11028517
878.243	0.11034192
878.418	0.11033964
878.592	0.11040598
878.767	0.11034544
878.941	0.11039079
879.116	0.11038446
879.29	0.11055727
879.464	0.11059892
879.639	0.11068582
879.813	0.11062062
879.987	0.11067666
880.162	0.1108257
880.336	0.11079111
880.51	0.11075634
880.685	0.11075105
880.859	0.11072414
881.033	0.1106262
881.207	0.11047508
881.381	0.11025285
881.556	0.11003123
881.73	0.10992988
881.904	0.10987107
882.078	0.10989692
882.252	0.10989037
882.426	0.10973351
882.6	0.10964557
882.774	0.10956966
882.948	0.10935162
883.122	0.10912912
883.296	0.10884043
883.47	0.10871495
883.644	0.10862005
883.818	0.1085096
883.992	0.10857805
884.166	0.10859993
884.34	0.1086631
884.514	0.10870769
884.687	0.10866982
884.861	0.10869627
885.035	0.10873047
885.209	0.10855681
885.382	0.10836422
885.556	0.10814731
885.73	0.10809193
885.904	0.10800355
886.077	0.10782415
886.251	0.10762805
886.425	0.1073941
886.598	0.10713299
886.772	0.10690544
886.945	0.10657069
887.119	0.10633334
887.292	0.10617185
887.466	0.1061585
887.64	0.10617677
887.813	0.10637794
887.986	0.10650191
888.16	0.1066577
888.333	0.10667888
888.507	0.1066664
888.68	0.10661012
888.854	0.10663931
889.027	0.10642129
889.2	0.10645745
889.374	0.10644196
889.547	0.10645465
889.72	0.10651452
889.893	0.10644728
890.067	0.10626275
890.24	0.1062459
890.413	0.10599727
890.586	0.10572166
890.759	0.10563246
890.933	0.10556791
891.106	0.10539288
891.279	0.10535298
891.452	0.10522945
891.625	0.10512544
891.798	0.10517248
891.971	0.10509982
892.144	0.10501562
892.317	0.10516305
892.49	0.10520711
892.663	0.10536831
892.836	0.10546457
893.009	0.10550767
893.182	0.10544786
893.355	0.10546619
893.527	0.10552602
893.7	0.10564452
893.873	0.10575961
894.046	0.10583423
894.219	0.10590535
894.391	0.10608578
894.564	0.106092
894.737	0.10592049
894.91	0.10569854
895.082	0.10538068
895.255	0.10512295
895.428	0.10488451
895.6	0.10448189
895.773	0.10404659
895.945	0.1037891
896.118	0.10362566
896.291	0.10344806
896.463	0.10322077
896.636	0.10294509
896.808	0.1026782
896.981	0.10241359
897.153	0.10199084
897.326	0.10155644
897.498	0.10122929
897.67	0.10093884
897.843	0.1006157
898.015	0.10054234
898.187	0.10043551
898.36	0.100343
898.532	0.10027502
898.704	0.10014197
898.877	0.09994398
899.049	0.09993897
899.221	0.09976401
899.393	0.09971254
899.566	0.09966814
899.738	0.09956357
899.91	0.09936188
900.082	0.09923301
900.254	0.09891811
900.426	0.09865222
900.598	0.09845748
900.77	0.09836417
900.942	0.09831027
901.114	0.09845455
901.286	0.09866404
901.458	0.09902472
901.63	0.09932384
901.802	0.09965928
901.974	0.09973173
902.146	0.09972647
902.318	0.09970489
902.49	0.09957941
902.662	0.09944695
902.834	0.09926485
903.005	0.09896084
903.177	0.09874038
903.349	0.09856183
903.521	0.09834751
903.693	0.09819326
903.864	0.09795311
904.036	0.09787058
904.208	0.09776925
904.379	0.09765929
904.551	0.09759561
904.723	0.09747862
904.894	0.09732241
905.066	0.09730333
905.237	0.09715279
905.409	0.09707423
905.58	0.0970671
905.752	0.09692648
905.923	0.0968297
906.095	0.09670474
906.266	0.09635552
906.438	0.0961124
906.609	0.09591156
906.78	0.09565566
906.952	0.0955708
907.123	0.0955026
907.295	0.09569862
907.466	0.09603782
907.637	0.09620247
907.808	0.09622169
907.98	0.09626681
908.151	0.09632531
908.322	0.0962942
908.493	0.09608626
908.665	0.0958916
908.836	0.09575132
909.007	0.09568257
909.178	0.09563767
909.349	0.09554962
909.52	0.09544846
909.691	0.09524887
909.862	0.09498674
910.033	0.09477868
910.204	0.09463239
910.375	0.0945487
910.546	0.09440723
910.717	0.09420846
910.888	0.09422086
911.059	0.09416747
911.23	0.09416374
911.401	0.09407647
911.572	0.09384515
911.742	0.09377782
911.913	0.09371519
912.084	0.09349586
912.255	0.09333517
912.426	0.09310058
912.596	0.0927567
912.767	0.09259802
912.938	0.09224248
913.108	0.09195274
913.279	0.09185118
913.45	0.09166932
913.62	0.09156251
913.791	0.09151271
913.962	0.09127669
914.132	0.09111401
914.303	0.09094988
914.473	0.09072651
914.644	0.09054349
914.814	0.090441
914.985	0.09051862
915.155	0.0905598
915.326	0.09060013
915.496	0.09071266
915.666	0.09072491
915.837	0.09074985
916.007	0.09042654
916.177	0.08991611
916.348	0.08954055
916.518	0.08923246
916.688	0.08889041
916.858	0.08874055
917.029	0.08865422
917.199	0.08881694
917.369	0.08906423
917.539	0.08932114
917.709	0.08948792
917.88	0.08960828
918.05	0.08972781
918.22	0.08983582
918.39	0.08974681
918.56	0.0897043
918.73	0.08972623
918.9	0.08975126
919.07	0.0898866
919.24	0.0899587
919.41	0.08995672
919.58	0.09006468
919.75	0.09013166
919.92	0.0899484
920.09	0.08982675
920.26	0.08967761
920.429	0.08941347
920.599	0.08909021
920.769	0.08878503
920.939	0.08852443
921.109	0.08847003
921.278	0.08838191
921.448	0.08827169
921.618	0.08808316
921.787	0.08799704
921.957	0.08800414
922.127	0.08790761
922.296	0.0877659
922.466	0.08757324
922.636	0.0874616
922.805	0.0872242
922.975	0.08699806
923.144	0.08666803
923.314	0.08637153
923.483	0.08608106
923.653	0.08588512
923.822	0.08551757
923.992	0.08536024
924.161	0.08517019
924.331	0.08508457
924.5	0.08502752
924.669	0.08484917
924.839	0.08472232
925.008	0.08455701
925.177	0.08435281
925.347	0.08430628
925.516	0.08428559
925.685	0.08429612
925.854	0.08446821
926.023	0.0844304
926.193	0.08463768
926.362	0.0848237
926.531	0.08491118
926.7	0.08485912
926.869	0.08483246
927.038	0.08449504
927.207	0.08435428
927.376	0.0839841
927.545	0.0837378
927.715	0.08343878
927.884	0.08320682
928.052	0.08290283
928.221	0.08281264
928.39	0.08251854
928.559	0.08245475
928.728	0.08235165
928.897	0.08241655
929.066	0.08248704
929.235	0.08252942
929.404	0.0824645
929.572	0.08245827
929.741	0.0823357
929.91	0.08212814
930.079	0.08162308
930.247	0.08137553
930.416	0.08117276
930.585	0.08098743
930.753	0.08081778
930.922	0.08061812
931.091	0.08046846
931.259	0.0805351
931.428	0.08022213
931.596	0.08001884
931.765	0.07999549
931.934	0.07999291
932.102	0.07975888
932.27	0.07969841
932.439	0.07940812
932.607	0.07934341
932.776	0.07909935
932.944	0.078949
933.113	0.07886342
933.281	0.07903919
933.449	0.0791068
933.618	0.07915549
933.786	0.07920704
933.954	0.0794339
934.123	0.07940843
934.291	0.07949177
934.459	0.07955652
934.627	0.07934584
934.795	0.07943758
934.964	0.07942137
935.132	0.07931167
935.3	0.07936957
935.468	0.07915314
935.636	0.07882681
935.804	0.07874848
935.972	0.07854112
936.14	0.07859725
936.308	0.07852253
936.476	0.07873244
936.644	0.079108
936.812	0.07967947
936.98	0.08026964
937.148	0.08077331
937.316	0.08087193
937.484	0.08109688
937.652	0.08106622
937.82	0.08137055
937.987	0.08122324
938.155	0.08117594
938.323	0.08125794
938.491	0.08123997
938.658	0.081989
938.826	0.08218064
938.994	0.08197999
939.162	0.08257333
939.329	0.08325895
939.497	0.08387101
939.665	0.08499961
939.832	0.08536035
940	0.08595865
940.167	0.08677211
940.335	0.08726234
940.502	0.0873242
940.67	0.08800115
940.837	0.08876061
941.005	0.08862604
941.172	0.08888421
941.34	0.08899938
941.507	0.08959434
941.674	0.09048623
941.842	0.09058402
942.009	0.09022314
942.177	0.09065185
942.344	0.09213813
942.511	0.09225114
942.678	0.0923426
942.846	0.09192849
943.013	0.09255228
943.18	0.09283685
943.347	0.09312474
943.514	0.09251935
943.682	0.09339386
943.849	0.09320833
944.016	0.09333349
944.183	0.09306313
944.35	0.09361088
944.517	0.09383143
944.684	0.09369441
944.851	0.09227256
945.018	0.09236146
945.185	0.09199174
945.352	0.09132732
945.519	0.09041532
945.686	0.08967975
945.853	0.08935683
946.02	0.08905791
946.187	0.08865265
946.353	0.0892739
946.52	0.08924338
946.687	0.08906455
946.854	0.08855923
947.021	0.08827195
947.187	0.08821563
947.354	0.08830816
947.521	0.08716806
947.687	0.08636173
947.854	0.08551711
948.021	0.08551308
948.187	0.08537933
948.354	0.0854751
948.52	0.0845637
948.687	0.08412991
948.854	0.08440021
949.02	0.08387727
949.187	0.08369809
949.353	0.08316949
949.52	0.08255097
949.686	0.08214078
949.852	0.08173383
950.019	0.08143134
950.185	0.08141307
950.352	0.08011968
950.518	0.07919142
950.684	0.07881916
950.851	0.07852077
951.017	0.07807781
951.183	0.07718867
951.349	0.07686236
951.516	0.07634043
951.682	0.0761414
951.848	0.07543486
952.014	0.0746998
952.18	0.07456429
952.346	0.0741751
952.512	0.07368116
952.679	0.0735739
952.845	0.07308003
953.011	0.07274574
953.177	0.07277176
953.343	0.0720508
953.509	0.0718327
953.675	0.07143345
953.841	0.0710706
954.007	0.0709153
954.172	0.07040581
954.338	0.06969464
954.504	0.06925208
954.67	0.06812078
954.836	0.06768006
955.002	0.0675466
955.167	0.06711086
955.333	0.0667119
955.499	0.06621843
955.665	0.06597844
955.83	0.06664884
955.996	0.06646061
956.162	0.06603989
956.327	0.06554314
956.493	0.06537532
956.659	0.06573263
956.824	0.06540936
956.99	0.06459546
957.155	0.0642488
957.321	0.06381998
957.486	0.06385963
957.652	0.06381019
957.817	0.0634448
957.983	0.06307456
958.148	0.06303994
958.314	0.06303596
958.479	0.06295414
958.644	0.06258997
958.81	0.0625862
958.975	0.06237417
959.14	0.06272117
959.306	0.06260536
959.471	0.0623715
959.636	0.06227511
959.801	0.06269078
959.967	0.06231601
960.132	0.06235544
960.297	0.06211358
960.462	0.06216456
960.627	0.06209179
960.792	0.06189711
960.957	0.06133515
961.123	0.06138082
961.288	0.0609692
961.453	0.06090769
961.618	0.06077489
961.783	0.06056531
961.948	0.06070245
962.113	0.06042128
962.277	0.06041136
962.442	0.06014336
962.607	0.05997513
962.772	0.05968732
962.937	0.0596428
963.102	0.05927166
963.267	0.05910378
963.431	0.05909899
963.596	0.05927398
963.761	0.05894211
963.926	0.05892662
964.09	0.05887525
964.255	0.05907593
964.42	0.0590653
964.584	0.05844641
964.749	0.05825028
964.914	0.05811498
965.078	0.05783907
965.243	0.05740323
965.407	0.05716909
965.572	0.05716454
965.736	0.0570201
965.901	0.05684879
966.065	0.05686854
966.23	0.05661136
966.394	0.0565428
966.559	0.05613455
966.723	0.0560679
966.887	0.05586663
967.052	0.05593784
967.216	0.05573657
967.38	0.0556684
967.545	0.05568264
967.709	0.05583529
967.873	0.05550691
968.037	0.05571243
968.202	0.05563895
968.366	0.05562964
968.53	0.05547
968.694	0.05568298
968.858	0.05585634
969.022	0.0560151
969.187	0.05612458
969.351	0.05602435
969.515	0.05613964
969.679	0.05619243
969.843	0.05591623
970.007	0.0554108
970.171	0.05537965
970.335	0.05497207
970.499	0.05469573
970.662	0.05461837
970.826	0.05454357
970.99	0.05451248
971.154	0.05445625
971.318	0.05437366
971.482	0.05427194
971.645	0.05430199
971.809	0.05422135
971.973	0.05402935
972.137	0.05357536
972.3	0.05349056
972.464	0.05320733
972.628	0.0531067
972.791	0.05277788
972.955	0.05246882
973.119	0.05221424
973.282	0.05189871
973.446	0.05201647
973.609	0.05199068
973.773	0.0520646
973.936	0.05197279
974.1	0.05195235
974.263	0.05215479
974.427	0.05258138
974.59	0.05223737
974.754	0.05203694
974.917	0.05203261
975.08	0.05203019
975.244	0.05190834
975.407	0.05182684
975.57	0.05192318
975.734	0.05170583
975.897	0.05178403
976.06	0.05170053
976.223	0.05175801
976.387	0.05167592
976.55	0.05169558
976.713	0.05119866
976.876	0.05120613
977.039	0.05096114
977.202	0.05059215
977.365	0.05030336
977.528	0.05012776
977.692	0.04987398
977.855	0.04997212
978.018	0.04966401
978.181	0.04942054
978.344	0.04955644
978.506	0.04925326
978.669	0.049389
978.832	0.04933307
978.995	0.04891883
979.158	0.04918439
979.321	0.04913264
979.484	0.0489354
979.646	0.04898252
979.809	0.04887382
979.972	0.0489439
980.135	0.04922132
980.297	0.04922058
980.46	0.04942381
980.623	0.04963673
980.786	0.0500693
980.948	0.05004652
981.111	0.04993732
981.273	0.04978985
981.436	0.04977458
981.599	0.04982136
981.761	0.04911419
981.924	0.0489465
982.086	0.04911399
982.249	0.04933641
982.411	0.04937094
982.573	0.04934104
982.736	0.04971367
982.898	0.05050853
983.061	0.05054089
983.223	0.05051503
983.385	0.05051541
983.548	0.05098405
983.71	0.05134525
983.872	0.05134318
984.034	0.05122043
984.197	0.05134332
984.359	0.0512764
984.521	0.05121617
984.683	0.05105063
984.845	0.05094743
985.008	0.0505565
985.17	0.05054988
985.332	0.05004283
985.494	0.04969473
985.656	0.04963158
985.818	0.04917216
985.98	0.0489132
986.142	0.04851957
986.304	0.04842941
986.466	0.04842134
986.628	0.04838932
986.79	0.04796332
986.952	0.0478434
987.113	0.04742364
987.275	0.04739792
987.437	0.04722077
987.599	0.04700782
987.761	0.0467421
987.922	0.04688987
988.084	0.04704612
988.246	0.04709407
988.408	0.04737328
988.569	0.04745829
988.731	0.04786162
988.893	0.04834473
989.054	0.04848766
989.216	0.04852011
989.377	0.04858931
989.539	0.04855683
989.701	0.04792604
989.862	0.04748692
990.024	0.0468115
990.185	0.04658627
990.347	0.04647721
990.508	0.04635846
990.669	0.04618388
990.831	0.04644185
990.992	0.04691793
991.154	0.04679519
991.315	0.04682551
991.476	0.04639997
991.638	0.04668774
991.799	0.04628461
991.96	0.04629557
992.121	0.04560789
992.283	0.0454788
992.444	0.04492421
992.605	0.0449041
992.766	0.04420578
992.927	0.04422996
993.088	0.04392917
993.249	0.04414708
993.41	0.04452595
993.572	0.04485411
993.733	0.04494256
993.894	0.04522502
994.055	0.04471607
994.216	0.04483819
994.376	0.04461103
994.537	0.04464427
994.698	0.0443693
994.859	0.04405865
995.02	0.04412131
995.181	0.04434266
995.342	0.04438963
995.503	0.04457226
995.663	0.04456762
995.824	0.04462715
995.985	0.04512655
996.146	0.04536625
996.306	0.04568233
996.467	0.04556908
996.628	0.04555882
996.788	0.04579018
996.949	0.04594451
997.11	0.04611185
997.27	0.04579746
997.431	0.04607094
997.591	0.0460953
997.752	0.04575012
997.912	0.04564126
998.073	0.04585345
998.233	0.04586438
998.394	0.04601596
998.554	0.0463204
998.714	0.04640588
998.875	0.04688852
999.035	0.04629755
999.196	0.04611749
999.356	0.04570639
999.516	0.04569715
999.676	0.04541473
999.837	0.04573757
999.997	0.04518775
1000.157	0.04547604
1000.317	0.04514589
1000.477	0.04521513
1000.638	0.04512033
1000.798	0.04480784
1000.958	0.04418456
1001.118	0.04449287
1001.278	0.04412339
1001.438	0.04433646
1001.598	0.04397172
1001.758	0.04376514
1001.918	0.04377433
1002.078	0.04400976
1002.238	0.04355251
1002.398	0.04370676
1002.558	0.04379924
1002.718	0.04375726
1002.878	0.04371168
1003.037	0.04325183
1003.197	0.04310884
1003.357	0.04349154
1003.517	0.04394703
1003.677	0.04334154
1003.836	0.04335579
1003.996	0.04322153
1004.156	0.04327429
1004.315	0.0428732
1004.475	0.04284887
1004.635	0.04184756
1004.794	0.04185487
1004.954	0.04188795
1005.114	0.04192843
1005.273	0.04163803
1005.433	0.04154522
1005.592	0.0408662
1005.752	0.04145799
1005.911	0.04120278
1006.071	0.04110674
1006.23	0.04055334
1006.389	0.04066103
1006.549	0.04011218
1006.708	0.04001695
1006.868	0.03908197
1007.027	0.03917807
1007.186	0.03882584
1007.345	0.03931156
1007.505	0.03939141
1007.664	0.03956791
1007.823	0.03990602
1007.982	0.04010584
1008.142	0.03988155
1008.301	0.04016942
1008.46	0.03984958
1008.619	0.0402111
1008.778	0.04106649
1008.937	0.04126932
1009.096	0.04114064
1009.255	0.04156391
1009.414	0.04143963
1009.573	0.04227082
1009.732	0.04261527
1009.891	0.04239636
1010.05	0.04220466
1010.209	0.04298357
1010.368	0.04362607
1010.527	0.04367805
1010.686	0.04328752
1010.845	0.04268995
1011.003	0.04235455
1011.162	0.04247333
1011.321	0.04197486
1011.48	0.04159498
1011.638	0.04170004
1011.797	0.04107862
1011.956	0.04046456
1012.115	0.04121635
1012.273	0.04139037
1012.432	0.04149441
1012.59	0.04031187
1012.749	0.04039522
1012.908	0.04063196
1013.066	0.04121942
1013.225	0.0409405
1013.383	0.04117944
1013.542	0.04172626
1013.7	0.04210958
1013.859	0.04181957
1014.017	0.04194819
1014.175	0.04204876
1014.334	0.04189603
1014.492	0.04180142
1014.65	0.04118316
1014.809	0.0424129
1014.967	0.04331556
1015.125	0.04376211
1015.284	0.04367265
1015.442	0.0440338
1015.6	0.04452218
1015.758	0.0445235
1015.916	0.04394691
1016.075	0.04317872
1016.233	0.04282961
1016.391	0.04343916
1016.549	0.04342443
1016.707	0.04327015
1016.865	0.04443415
1017.023	0.04402042
1017.181	0.04482326
1017.339	0.04566385
1017.497	0.0446403
1017.655	0.04459214
1017.813	0.04450939
1017.971	0.04445769
1018.129	0.04475872
1018.286	0.045377
1018.444	0.04448179
1018.602	0.04556108
1018.76	0.04516558
1018.918	0.04494794
1019.075	0.0447907
1019.233	0.04564778
1019.391	0.04496883
1019.549	0.04514056
1019.706	0.04670586
1019.864	0.0479536
1020.022	0.04710005
1020.179	0.04806997
1020.337	0.04826318
1020.494	0.04791313
1020.652	0.04868502
1020.809	0.04716333
1020.967	0.04729411
1021.124	0.04808477
1021.282	0.04719036
1021.439	0.04736454
1021.597	0.04858684
1021.754	0.04739991
1021.911	0.04808169
1022.069	0.04773056
1022.226	0.04810035
1022.384	0.04723491
1022.541	0.04638252
1022.698	0.04622467
1022.855	0.04769952
1023.013	0.04825793
1023.17	0.04758997
1023.327	0.04764133
1023.484	0.04936338
1023.641	0.04952459
1023.798	0.05092729
1023.956	0.05175846
1024.113	0.0516729
1024.27	0.05330317
1024.427	0.05204155
1024.584	0.05251878
1024.741	0.05332492
1024.898	0.05248808
1025.055	0.05198042
1025.212	0.05061803
1025.369	0.04772639
1025.525	0.04949417
1025.682	0.04941048
1025.839	0.04875894
1025.996	0.04869125
1026.153	0.04959001
1026.31	0.05051518
1026.466	0.05408152
1026.623	0.0553911
1026.78	0.05388757
1026.937	0.05500958
1027.093	0.05376931
1027.25	0.05398882
1027.407	0.05413872
1027.563	0.05136748
1027.72	0.05074372
1027.876	0.05148001
1028.033	0.05060762
1028.19	0.05169865
1028.346	0.04945194
1028.503	0.05023595
1028.659	0.05541211
1028.816	0.05537447
1028.972	0.05861572
1029.128	0.06242147
1029.285	0.06163641
1029.441	0.06128334
1029.598	0.06005141
1029.754	0.05914935
1029.91	0.06106803
1030.067	0.06030683
1030.223	0.05789719
1030.379	0.0588002
1030.535	0.06125153
1030.691	0.06074645
1030.848	0.05909628
1031.004	0.05740526
1031.16	0.05723198
1031.316	0.06041893
1031.472	0.06069534
1031.628	0.05804238
1031.784	0.05867753
1031.94	0.05890343
1032.096	0.05829819
1032.252	0.05881325
1032.408	0.0582295
1032.564	0.05997345
1032.72	0.06408672
1032.876	0.06461029
1033.032	0.0645768
1033.188	0.06538378
1033.344	0.06539077
1033.5	0.06493573
1033.655	0.06418751
1033.811	0.06388125
1033.967	0.06597924
