Data from 1_mm_pl_70pc_Absorbance__0__16-15-14-394.txt Node

Date: Wed Mar 08 16:15:14 CET 2023
User: Ange
Spectrometer: FLMT08341
Trigger mode: 0
Integration Time (sec): 1.000000E-2
Scans to average: 400
Electric dark correction enabled: true
Nonlinearity correction enabled: false
Boxcar width: 3
XAxis mode: Wavelengths
Number of Pixels in Spectrum: 3648
>>>>>Begin Spectral Data<<<<<
345.271	-0.01349345
345.487	-0.00890028
345.704	-0.01344413
345.921	-0.00852306
346.137	-0.00327579
346.354	0.01460294
346.571	0.02483039
346.787	0.24243421
347.004	-0.05727992
347.22	-0.09222978
347.437	0.04470705
347.653	0.14583408
347.87	-0.25537533
348.086	-0.19201504
348.303	-0
348.519	0.3465227
348.736	0.37496757
348.952	0.40077258
349.169	0.4152611
349.385	0.43727371
349.601	0.43541356
349.818	0.43515832
350.034	0.42934871
350.251	0.42301519
350.467	0.42070844
350.683	0.40778895
350.9	0.40553788
351.116	0.40263172
351.332	0.39498295
351.549	0.40987829
351.765	0.42316505
351.981	0.43297972
352.197	0.44723532
352.414	0.46362123
352.63	0.47422189
352.846	0.49029542
353.062	0.47894549
353.278	0.46800647
353.495	0.48112912
353.711	0.48529353
353.927	0.48958391
354.143	0.49169204
354.359	0.48237868
354.575	0.47836576
354.792	0.49171526
355.008	0.48013953
355.224	0.47272219
355.44	0.46397435
355.656	0.45942772
355.872	0.46674502
356.088	0.49747272
356.304	0.50082105
356.52	0.50807284
356.736	0.51345953
356.952	0.51680583
357.168	0.51869914
357.384	0.52558944
357.6	0.50641434
357.816	0.5122061
358.032	0.51948456
358.248	0.53700276
358.464	0.53794661
358.679	0.54507414
358.895	0.54578376
359.111	0.55688055
359.327	0.54613389
359.543	0.54336983
359.759	0.54522783
359.974	0.54554002
360.19	0.54277162
360.406	0.54289278
360.622	0.53991614
360.838	0.53992175
361.053	0.54613173
361.269	0.54848941
361.485	0.55269337
361.701	0.55821623
361.916	0.55098326
362.132	0.55222016
362.348	0.55818162
362.563	0.55911864
362.779	0.55212296
362.995	0.55652956
363.21	0.56373289
363.426	0.57268807
363.641	0.57438416
363.857	0.57774376
364.073	0.57525164
364.288	0.57411597
364.504	0.58422942
364.719	0.58225062
364.935	0.58079883
365.15	0.58194033
365.366	0.5848473
365.581	0.59323767
365.797	0.59643069
366.012	0.58577925
366.228	0.58163833
366.443	0.59172186
366.658	0.59087329
366.874	0.58651742
367.089	0.59130571
367.305	0.59543096
367.52	0.60199142
367.735	0.60467094
367.951	0.59804692
368.166	0.6055294
368.381	0.61841719
368.597	0.61403068
368.812	0.62019255
369.027	0.62467775
369.243	0.6294707
369.458	0.64680705
369.673	0.64797441
369.888	0.6462692
370.104	0.64389865
370.319	0.64543301
370.534	0.64355741
370.749	0.64263137
370.964	0.6405096
371.179	0.64001089
371.395	0.63743575
371.61	0.64613569
371.825	0.63859008
372.04	0.64274881
372.255	0.6420549
372.47	0.63644316
372.685	0.63229321
372.9	0.63264112
373.115	0.62562156
373.33	0.63379096
373.545	0.63181599
373.76	0.63774103
373.975	0.63778631
374.19	0.63677152
374.405	0.63998129
374.62	0.65184159
374.835	0.65861783
375.05	0.66215418
375.265	0.66473348
375.48	0.66892142
375.695	0.68410192
375.91	0.68365741
376.125	0.67420041
376.339	0.66243272
376.554	0.66464961
376.769	0.66208038
376.984	0.66192621
377.199	0.66481144
377.414	0.66610718
377.628	0.67598955
377.843	0.68610216
378.058	0.68971346
378.273	0.69668373
378.487	0.70167612
378.702	0.70183286
378.917	0.70266376
379.131	0.69774696
379.346	0.6915134
379.561	0.68554418
379.775	0.68035313
379.99	0.67427654
380.205	0.66737502
380.419	0.66303378
380.634	0.65677708
380.848	0.66445901
381.063	0.66680443
381.278	0.6757255
381.492	0.67372896
381.707	0.68116191
381.921	0.68369463
382.136	0.69449288
382.35	0.68961576
382.565	0.68775231
382.779	0.68710811
382.994	0.69067915
383.208	0.68410937
383.422	0.69212706
383.637	0.69050312
383.851	0.69776929
384.066	0.70369033
384.28	0.70579814
384.494	0.70770459
384.709	0.71465149
384.923	0.71418671
385.137	0.71168012
385.352	0.71023146
385.566	0.71360376
385.78	0.71048432
385.995	0.70779568
386.209	0.70572275
386.423	0.7090903
386.637	0.71386349
386.852	0.70983041
387.066	0.70774998
387.28	0.70518792
387.494	0.71237756
387.708	0.713259
387.923	0.71058963
388.137	0.71402402
388.351	0.71829316
388.565	0.72204765
388.779	0.72622666
388.993	0.73189116
389.207	0.73533474
389.421	0.7374471
389.635	0.73319443
389.85	0.73183958
390.064	0.73014971
390.278	0.7301353
390.492	0.72823303
390.706	0.7284929
390.92	0.72973059
391.134	0.7352202
391.348	0.74356932
391.561	0.74243003
391.775	0.74245458
391.989	0.73822706
392.203	0.74037332
392.417	0.74224198
392.631	0.74582267
392.845	0.74030227
393.059	0.74540357
393.273	0.74553517
393.486	0.74355103
393.7	0.73866291
393.914	0.74134489
394.128	0.73820471
394.342	0.73683747
394.555	0.72965585
394.769	0.72995818
394.983	0.73421454
395.197	0.73881652
395.41	0.73691271
395.624	0.73843921
395.838	0.7388413
396.051	0.74843191
396.265	0.74675389
396.479	0.74822466
396.692	0.7484299
396.906	0.74546363
397.12	0.74369659
397.333	0.74858748
397.547	0.74529015
397.76	0.7498314
397.974	0.75084773
398.187	0.75252774
398.401	0.75679917
398.614	0.75865795
398.828	0.75826059
399.041	0.75929064
399.255	0.75866202
399.468	0.75712031
399.682	0.75698125
399.895	0.75809023
400.109	0.7572485
400.322	0.75449916
400.536	0.74972603
400.749	0.75328302
400.962	0.75494596
401.176	0.75223126
401.389	0.74967384
401.602	0.74496004
401.816	0.74743398
402.029	0.7529842
402.242	0.74934265
402.456	0.74788103
402.669	0.74582287
402.882	0.74154476
403.095	0.74787216
403.309	0.74686053
403.522	0.74657319
403.735	0.74589217
403.948	0.74634319
404.161	0.75407605
404.375	0.75659749
404.588	0.75541798
404.801	0.75542783
405.014	0.75238176
405.227	0.75637416
405.44	0.75749731
405.653	0.75715438
405.866	0.75538876
406.079	0.75374435
406.293	0.75329588
406.506	0.75390514
406.719	0.75091874
406.932	0.74927657
407.145	0.74430595
407.358	0.74898168
407.571	0.74713973
407.784	0.74801074
407.996	0.74833392
408.209	0.74615685
408.422	0.74428253
408.635	0.74541771
408.848	0.74346618
409.061	0.74079182
409.274	0.73914608
409.487	0.73797921
409.7	0.73889797
409.912	0.7404595
410.125	0.73974346
410.338	0.73882031
410.551	0.7390386
410.764	0.73914485
410.976	0.73875955
411.189	0.73787274
411.402	0.73532497
411.615	0.73570038
411.827	0.73538587
412.04	0.7362223
412.253	0.7346932
412.465	0.73306786
412.678	0.73106122
412.891	0.73222446
413.103	0.72652343
413.316	0.7244839
413.529	0.72595005
413.741	0.72639502
413.954	0.7271932
414.166	0.7278712
414.379	0.72623349
414.591	0.72830547
414.804	0.72679561
415.016	0.72429313
415.229	0.72196278
415.441	0.71887183
415.654	0.71820299
415.866	0.71762699
416.079	0.71832008
416.291	0.7177375
416.504	0.71876052
416.716	0.71898141
416.928	0.71976658
417.141	0.71765467
417.353	0.71687901
417.566	0.71300739
417.778	0.71245094
417.99	0.70755504
418.203	0.70443006
418.415	0.70259174
418.627	0.70254487
418.839	0.70115092
419.052	0.7034186
419.264	0.70255946
419.476	0.7032826
419.688	0.70366206
419.901	0.7026746
420.113	0.70029272
420.325	0.69805396
420.537	0.69406901
420.749	0.6936775
420.961	0.69298838
421.174	0.69128535
421.386	0.68935047
421.598	0.68840594
421.81	0.6877239
422.022	0.6869193
422.234	0.68517475
422.446	0.68203784
422.658	0.68001055
422.87	0.67911623
423.082	0.67752053
423.294	0.67588403
423.506	0.67484065
423.718	0.6729385
423.93	0.67149366
424.142	0.66942226
424.354	0.66741733
424.566	0.66581701
424.778	0.66455407
424.99	0.6629959
425.202	0.66042263
425.414	0.65975201
425.625	0.6600942
425.837	0.65714073
426.049	0.65668172
426.261	0.65463017
426.473	0.65202561
426.684	0.65119508
426.896	0.65015434
427.108	0.64653993
427.32	0.64673256
427.531	0.64407672
427.743	0.6428321
427.955	0.64302033
428.167	0.64073528
428.378	0.63874839
428.59	0.63796044
428.802	0.63591952
429.013	0.63370185
429.225	0.63120599
429.436	0.62862963
429.648	0.62780548
429.86	0.62654224
430.071	0.62512967
430.283	0.62351849
430.494	0.62191494
430.706	0.62063719
430.917	0.61841979
431.129	0.61665227
431.34	0.61426942
431.552	0.61300011
431.763	0.61062836
431.975	0.60998841
432.186	0.60718168
432.398	0.60539884
432.609	0.60213029
432.821	0.60063031
433.032	0.59825117
433.243	0.59641126
433.455	0.59451125
433.666	0.59356804
433.877	0.59291894
434.089	0.59125264
434.3	0.58858101
434.511	0.58591775
434.723	0.58378928
434.934	0.58044078
435.145	0.57741152
435.356	0.57406653
435.568	0.57220417
435.779	0.57031848
435.99	0.56789201
436.201	0.56571817
436.412	0.56392956
436.624	0.56309052
436.835	0.56203466
437.046	0.56102902
437.257	0.5592591
437.468	0.55895122
437.679	0.55794721
437.89	0.55646143
438.101	0.55505125
438.312	0.55302137
438.523	0.55072341
438.734	0.54901409
438.945	0.54664495
439.156	0.54402884
439.367	0.5425322
439.578	0.5408549
439.789	0.53799106
440	0.5361103
440.211	0.53377048
440.422	0.53190663
440.633	0.53082747
440.844	0.52828445
441.055	0.52562452
441.266	0.52486044
441.477	0.52266461
441.687	0.52104376
441.898	0.51927785
442.109	0.51674262
442.32	0.51499024
442.531	0.51259466
442.741	0.50918029
442.952	0.50723917
443.163	0.50520323
443.374	0.50264405
443.584	0.5004149
443.795	0.49848884
444.006	0.49678565
444.216	0.49523914
444.427	0.49290532
444.638	0.49079628
444.848	0.48899866
445.059	0.48718294
445.27	0.4848793
445.48	0.4824543
445.691	0.48071347
445.901	0.47916313
446.112	0.47735091
446.323	0.47500289
446.533	0.47267159
446.744	0.47039119
446.954	0.4683496
447.165	0.46603415
447.375	0.46436553
447.586	0.46256731
447.796	0.46108282
448.006	0.45945783
448.217	0.45829018
448.427	0.45688843
448.638	0.4549969
448.848	0.45260879
449.058	0.45031029
449.269	0.44847899
449.479	0.44665471
449.689	0.44448956
449.9	0.44265372
450.11	0.44102895
450.32	0.43960138
450.531	0.43765329
450.741	0.43542913
450.951	0.43355164
451.161	0.43149616
451.372	0.4296139
451.582	0.42881471
451.792	0.42661273
452.002	0.42487171
452.212	0.42279851
452.422	0.4210583
452.633	0.41913804
452.843	0.41767008
453.053	0.41467279
453.263	0.41327363
453.473	0.41150422
453.683	0.41045194
453.893	0.40832489
454.103	0.40716297
454.313	0.40497484
454.523	0.40331242
454.733	0.40153319
454.943	0.40020277
455.153	0.39848905
455.363	0.39712888
455.573	0.39546248
455.783	0.39407188
455.993	0.39242269
456.203	0.39107477
456.413	0.38946844
456.623	0.38777781
456.833	0.38662163
457.042	0.38502637
457.252	0.38357034
457.462	0.38228941
457.672	0.38068216
457.882	0.37921862
458.091	0.37779948
458.301	0.37609898
458.511	0.37464961
458.721	0.37304592
458.931	0.37143725
459.14	0.370188
459.35	0.36900059
459.56	0.36779932
459.769	0.36673592
459.979	0.36526497
460.189	0.3642666
460.398	0.36308965
460.608	0.36187595
460.817	0.36069762
461.027	0.35933516
461.237	0.3579153
461.446	0.35664464
461.656	0.35550141
461.865	0.35416962
462.075	0.35294845
462.284	0.35173089
462.494	0.35049792
462.703	0.34921502
462.913	0.34831414
463.122	0.34705656
463.332	0.34607399
463.541	0.34511038
463.751	0.34393151
463.96	0.34297005
464.169	0.34195186
464.379	0.34112523
464.588	0.34015859
464.797	0.33915254
465.007	0.33812802
465.216	0.33715365
465.425	0.33616326
465.635	0.33523789
465.844	0.33420988
466.053	0.33331531
466.263	0.3325739
466.472	0.33164682
466.681	0.33088448
466.89	0.3300549
467.099	0.32924609
467.309	0.32846905
467.518	0.32777679
467.727	0.32686825
467.936	0.32605673
468.145	0.32531275
468.354	0.32479012
468.563	0.32413727
468.772	0.32342039
468.982	0.322763
469.191	0.32240822
469.4	0.32183894
469.609	0.32117887
469.818	0.32072657
470.027	0.32009733
470.236	0.31933759
470.445	0.31884964
470.654	0.31811353
470.863	0.31753747
471.072	0.3171732
471.28	0.31636038
471.489	0.31617191
471.698	0.31580214
471.907	0.31525096
472.116	0.31498163
472.325	0.31456088
472.534	0.31417352
472.743	0.31383534
472.951	0.31358957
473.16	0.31350697
473.369	0.31319907
473.578	0.31299717
473.786	0.31293909
473.995	0.31266933
474.204	0.31264944
474.413	0.31219352
474.621	0.31185548
474.83	0.31186637
475.039	0.31163901
475.247	0.31146338
475.456	0.31147553
475.665	0.31132789
475.873	0.31128314
476.082	0.3110464
476.291	0.31073615
476.499	0.31070325
476.708	0.31053709
476.916	0.3105145
477.125	0.31045777
477.333	0.31059908
477.542	0.31085212
477.75	0.31107428
477.959	0.31125148
478.167	0.31153113
478.376	0.31148794
478.584	0.31172191
478.793	0.31171196
479.001	0.3118436
479.209	0.31192627
479.418	0.31199772
479.626	0.31212654
479.834	0.31242189
480.043	0.31257678
480.251	0.31273696
480.459	0.31287156
480.668	0.31310851
480.876	0.31330306
481.084	0.31350069
481.293	0.31366946
481.501	0.31388641
481.709	0.31432951
481.917	0.31476585
482.125	0.31508883
482.334	0.31539408
482.542	0.31577964
482.75	0.31626893
482.958	0.31675709
483.166	0.3171951
483.374	0.31756862
483.583	0.31816123
483.791	0.31872872
483.999	0.31917767
484.207	0.3196809
484.415	0.32013218
484.623	0.32062606
484.831	0.32116605
485.039	0.32170089
485.247	0.32223636
485.455	0.3229329
485.663	0.32351683
485.871	0.3241812
486.079	0.32465258
486.287	0.32534745
486.495	0.32589849
486.702	0.32640846
486.91	0.32699989
487.118	0.32767109
487.326	0.32831244
487.534	0.32906751
487.742	0.32979587
487.95	0.33058958
488.157	0.33157374
488.365	0.33239063
488.573	0.33314218
488.781	0.33400876
488.988	0.33506356
489.196	0.33587948
489.404	0.3366764
489.612	0.33748031
489.819	0.33841298
490.027	0.33937491
490.235	0.34026335
490.442	0.34123932
490.65	0.34219789
490.857	0.34322394
491.065	0.34424217
491.273	0.34509281
491.48	0.34609039
491.688	0.3469272
491.895	0.34771975
492.103	0.34862046
492.31	0.3495153
492.518	0.35054756
492.725	0.35177152
492.933	0.35282942
493.14	0.35407967
493.348	0.35518604
493.555	0.35631558
493.763	0.35753598
493.97	0.35865468
494.177	0.35969774
494.385	0.36080032
494.592	0.36195502
494.8	0.36316876
495.007	0.36444811
495.214	0.36571235
495.422	0.3669589
495.629	0.36818176
495.836	0.36946153
496.043	0.37069665
496.251	0.37198698
496.458	0.37321825
496.665	0.37447074
496.872	0.37571971
497.08	0.37700935
497.287	0.37824109
497.494	0.37963871
497.701	0.38094938
497.908	0.38234013
498.115	0.38360781
498.322	0.38488829
498.53	0.38616944
498.737	0.38746482
498.944	0.3886318
499.151	0.38993899
499.358	0.39125734
499.565	0.39262034
499.772	0.39409773
499.979	0.39551549
500.186	0.39702029
500.393	0.39855195
500.6	0.40001356
500.807	0.40146906
501.014	0.40294109
501.221	0.40439075
501.427	0.40584151
501.634	0.40734801
501.841	0.40880954
502.048	0.41033473
502.255	0.4116975
502.462	0.41324443
502.669	0.41486855
502.875	0.41652313
503.082	0.41808349
503.289	0.41966551
503.496	0.42120006
503.702	0.42284299
503.909	0.42440233
504.116	0.42590269
504.323	0.42750442
504.529	0.42909194
504.736	0.43084176
504.943	0.43237496
505.149	0.43417478
505.356	0.43590765
505.563	0.43768614
505.769	0.43937692
505.976	0.4410952
506.182	0.44280824
506.389	0.44473252
506.595	0.44638853
506.802	0.44809039
507.008	0.44980154
507.215	0.451544
507.421	0.45338669
507.628	0.45510594
507.834	0.45674356
508.041	0.45860008
508.247	0.460356
508.454	0.46211454
508.66	0.46377077
508.866	0.46547929
509.073	0.46724544
509.279	0.46920153
509.486	0.4708879
509.692	0.47266103
509.898	0.47452319
510.105	0.47639945
510.311	0.47808472
510.517	0.47987352
510.723	0.48157895
510.93	0.48331613
511.136	0.48514432
511.342	0.48690759
511.548	0.48879794
511.754	0.49079425
511.961	0.49270649
512.167	0.49458158
512.373	0.4964618
512.579	0.49840836
512.785	0.50027808
512.991	0.50209522
513.197	0.50395184
513.404	0.50582906
513.61	0.50780479
513.816	0.50952969
514.022	0.51130544
514.228	0.51302395
514.434	0.51485572
514.64	0.5166846
514.846	0.51855756
515.052	0.52034706
515.258	0.52243215
515.464	0.52432109
515.669	0.5263214
515.875	0.5282874
516.081	0.53024502
516.287	0.53213283
516.493	0.53405364
516.699	0.53583548
516.905	0.53775453
517.111	0.53967641
517.316	0.54160609
517.522	0.54360445
517.728	0.5455602
517.934	0.54752941
518.139	0.54949786
518.345	0.55132934
518.551	0.55329114
518.757	0.55518068
518.962	0.55699514
519.168	0.5589861
519.374	0.5607241
519.579	0.56268003
519.785	0.56486027
519.991	0.5668985
520.196	0.56886536
520.402	0.57075022
520.607	0.57271891
520.813	0.5749439
521.018	0.57683979
521.224	0.57841397
521.429	0.58032978
521.635	0.5822304
521.84	0.58400185
522.046	0.58596145
522.251	0.58776757
522.457	0.58972563
522.662	0.59195151
522.868	0.59383858
523.073	0.595694
523.279	0.59777852
523.484	0.5994179
523.689	0.60136863
523.895	0.6034229
524.1	0.605318
524.305	0.60718869
524.511	0.60921904
524.716	0.61121802
524.921	0.61327619
525.126	0.61518304
525.332	0.61712235
525.537	0.61894289
525.742	0.62115258
525.947	0.62319005
526.153	0.62494991
526.358	0.6269905
526.563	0.62889527
526.768	0.63072847
526.973	0.6327805
527.178	0.63452665
527.383	0.63628607
527.588	0.63834515
527.794	0.64014236
527.999	0.64202081
528.204	0.64387161
528.409	0.64560836
528.614	0.64752845
528.819	0.64947753
529.024	0.65121185
529.229	0.65292625
529.434	0.65497738
529.639	0.65690092
529.843	0.65885603
530.048	0.66067046
530.253	0.66256708
530.458	0.66454872
530.663	0.66660617
530.868	0.66834178
531.073	0.67002905
531.278	0.67174814
531.482	0.67352159
531.687	0.67522353
531.892	0.67689761
532.097	0.67844094
532.302	0.68026488
532.506	0.68202183
532.711	0.68378335
532.916	0.6855118
533.12	0.68723206
533.325	0.68904625
533.53	0.69114958
533.734	0.69278223
533.939	0.69475433
534.144	0.69662849
534.348	0.69848925
534.553	0.70025516
534.757	0.70182897
534.962	0.70335337
535.167	0.70525793
535.371	0.70688002
535.576	0.70864678
535.78	0.71043181
535.985	0.71229419
536.189	0.71414308
536.394	0.71593526
536.598	0.71755116
536.803	0.71925408
537.007	0.72095608
537.211	0.7227355
537.416	0.72427238
537.62	0.72598749
537.825	0.727662
538.029	0.72967584
538.233	0.73129254
538.438	0.73298496
538.642	0.73423373
538.846	0.73602008
539.05	0.73768253
539.255	0.73923641
539.459	0.7405744
539.663	0.74225176
539.867	0.74387941
540.072	0.74575715
540.276	0.74712868
540.48	0.74879708
540.684	0.75045198
540.888	0.75217721
541.092	0.75365358
541.297	0.75512598
541.501	0.7565869
541.705	0.75832034
541.909	0.75968222
542.113	0.76107331
542.317	0.76264443
542.521	0.76423049
542.725	0.76591642
542.929	0.76740403
543.133	0.76896904
543.337	0.77066349
543.541	0.772184
543.745	0.77342843
543.949	0.77502587
544.153	0.77623367
544.357	0.77760434
544.56	0.77908696
544.764	0.78050482
544.968	0.78197858
545.172	0.78320852
545.376	0.7846159
545.58	0.7861742
545.783	0.78792648
545.987	0.78917173
546.191	0.79057926
546.395	0.79207871
546.598	0.79379614
546.802	0.79521517
547.006	0.79658838
547.21	0.79745077
547.413	0.79894688
547.617	0.80016616
547.821	0.80144818
548.024	0.80277296
548.228	0.80390193
548.431	0.8052312
548.635	0.80681454
548.839	0.80803328
549.042	0.80946368
549.246	0.81069965
549.449	0.81197718
549.653	0.81334856
549.856	0.81445607
550.06	0.81560335
550.263	0.81685937
550.467	0.8180323
550.67	0.81933649
550.874	0.82023691
551.077	0.82153541
551.28	0.8229033
551.484	0.82419547
551.687	0.82538069
551.891	0.82662615
552.094	0.82764941
552.297	0.82909419
552.501	0.83033605
552.704	0.83145432
552.907	0.83255448
553.11	0.83350865
553.314	0.8346568
553.517	0.83552785
553.72	0.83651219
553.923	0.83735163
554.127	0.83844268
554.33	0.8392714
554.533	0.84044836
554.736	0.84133622
554.939	0.84261246
555.142	0.84384785
555.345	0.84514592
555.549	0.84645729
555.752	0.84779166
555.955	0.84886163
556.158	0.85017614
556.361	0.85122224
556.564	0.85219544
556.767	0.85307503
556.97	0.85394512
557.173	0.85490878
557.376	0.8560441
557.579	0.85679269
557.782	0.85777695
557.984	0.85891676
558.187	0.85998339
558.39	0.86084671
558.593	0.86194122
558.796	0.86260035
558.999	0.86332299
559.202	0.86408488
559.404	0.86453953
559.607	0.86524912
559.81	0.86595266
560.013	0.86653803
560.216	0.86741802
560.418	0.86851632
560.621	0.86948815
560.824	0.87071549
561.026	0.87161955
561.229	0.87246725
561.432	0.8733594
561.634	0.87419539
561.837	0.87471222
562.04	0.87551217
562.242	0.87613595
562.445	0.87692869
562.647	0.87772923
562.85	0.8783085
563.053	0.87895303
563.255	0.87995372
563.458	0.88080179
563.66	0.88151118
563.863	0.88240061
564.065	0.88320537
564.268	0.88409671
564.47	0.88499402
564.672	0.88560098
564.875	0.88634808
565.077	0.88711346
565.28	0.88757174
565.482	0.88826175
565.684	0.88878066
565.887	0.88941646
566.089	0.8902398
566.291	0.89070901
566.494	0.89133032
566.696	0.89189868
566.898	0.89254678
567.1	0.89335972
567.303	0.89392585
567.505	0.89440743
567.707	0.89488224
567.909	0.89526866
568.111	0.89584973
568.314	0.89637964
568.516	0.8968346
568.718	0.89722591
568.92	0.89769221
569.122	0.89830385
569.324	0.8987534
569.526	0.89902285
569.728	0.89950042
569.93	0.89986582
570.132	0.90021437
570.334	0.90054426
570.536	0.90072846
570.738	0.90101131
570.94	0.90139944
571.142	0.90177198
571.344	0.90189546
571.546	0.90231372
571.748	0.90282541
571.95	0.90319437
572.152	0.90357242
572.354	0.90394294
572.555	0.90424871
572.757	0.9049959
572.959	0.90522923
573.161	0.90515083
573.363	0.9056139
573.564	0.90624535
573.766	0.90658899
573.968	0.90685713
574.17	0.90674988
574.371	0.90729974
574.573	0.90773983
574.775	0.90769376
574.976	0.90764489
575.178	0.90784326
575.38	0.9078122
575.581	0.90798782
575.783	0.90803039
575.985	0.90820316
576.186	0.9086109
576.388	0.90877919
576.589	0.90886496
576.791	0.90915993
576.992	0.90943812
577.194	0.90956825
577.395	0.90957616
577.597	0.9095872
577.798	0.90968868
578	0.90975639
578.201	0.90976745
578.402	0.90991825
578.604	0.90990124
578.805	0.91012982
579.007	0.9102707
579.208	0.91027385
579.409	0.91048668
579.611	0.91044176
579.812	0.91047957
580.013	0.91044464
580.215	0.91012147
580.416	0.90995939
580.617	0.90991746
580.818	0.9097795
581.019	0.90979974
581.221	0.90970054
581.422	0.90964817
581.623	0.90987331
581.824	0.90967723
582.025	0.90954975
582.226	0.9094707
582.428	0.9094315
582.629	0.90928947
582.83	0.9090472
583.031	0.90871583
583.232	0.90899217
583.433	0.90907663
583.634	0.9089323
583.835	0.90872374
584.036	0.90845027
584.237	0.90832062
584.438	0.90820301
584.639	0.90747128
584.84	0.90709157
585.041	0.90666848
585.242	0.90631109
585.442	0.90610172
585.643	0.90608249
585.844	0.9057598
586.045	0.90582553
586.246	0.90540803
586.447	0.90509462
586.647	0.90470283
586.848	0.9042377
587.049	0.90370326
587.25	0.90332676
587.45	0.90278336
587.651	0.90250599
587.852	0.90221596
588.053	0.90211346
588.253	0.90161524
588.454	0.90132555
588.655	0.90086725
588.855	0.90035708
589.056	0.89997633
589.256	0.89966275
589.457	0.89898813
589.658	0.89876748
589.858	0.89801972
590.059	0.89761796
590.259	0.89725881
590.46	0.89663166
590.66	0.89603676
590.861	0.89558004
591.061	0.89499838
591.262	0.89472733
591.462	0.89427671
591.662	0.89373494
591.863	0.89315003
592.063	0.89266225
592.264	0.89220255
592.464	0.8915627
592.664	0.8910034
592.865	0.89034373
593.065	0.88945784
593.265	0.88903581
593.465	0.88815721
593.666	0.88752898
593.866	0.88692139
594.066	0.88622943
594.266	0.88573078
594.467	0.88508327
594.667	0.88431729
594.867	0.88374413
595.067	0.88294427
595.267	0.88221766
595.467	0.88153624
595.668	0.8806874
595.868	0.8803144
596.068	0.87978968
596.268	0.87920848
596.468	0.87870009
596.668	0.87819878
596.868	0.87747696
597.068	0.87691469
597.268	0.87623243
597.468	0.87542217
597.668	0.87464991
597.868	0.8738395
598.068	0.87306184
598.268	0.87237924
598.467	0.87165791
598.667	0.87080223
598.867	0.86987947
599.067	0.86911617
599.267	0.86828555
599.467	0.86745355
599.667	0.8665117
599.866	0.86582795
600.066	0.86507292
600.266	0.86421621
600.466	0.86340143
600.665	0.86251594
600.865	0.8615529
601.065	0.86088312
601.264	0.85973957
601.464	0.85878843
601.664	0.85806372
601.863	0.85714592
602.063	0.85639018
602.263	0.8552597
602.462	0.85428915
602.662	0.85341994
602.861	0.85235256
603.061	0.85142977
603.26	0.85048128
603.46	0.84930564
603.659	0.84861688
603.859	0.84768364
604.058	0.84666293
604.258	0.84589568
604.457	0.84506406
604.657	0.84392832
604.856	0.84290898
605.056	0.84193084
605.255	0.84083661
605.454	0.83991784
605.654	0.83882191
605.853	0.837782
606.052	0.83671434
606.252	0.83581031
606.451	0.83486399
606.65	0.83401695
606.849	0.83265726
607.049	0.83153954
607.248	0.83026563
607.447	0.82941659
607.646	0.82853977
607.845	0.82742483
608.045	0.8261435
608.244	0.825445
608.443	0.82447723
608.642	0.8235781
608.841	0.82230123
609.04	0.82107259
609.239	0.82000509
609.438	0.81885411
609.637	0.8176794
609.836	0.81665956
610.035	0.81553306
610.234	0.81463
610.433	0.81357546
610.632	0.8124138
610.831	0.81138868
611.03	0.81024158
611.229	0.80924272
611.428	0.8081345
611.627	0.80702887
611.826	0.80585873
612.025	0.80479698
612.224	0.80353521
612.422	0.80223362
612.621	0.80073536
612.82	0.79957196
613.019	0.79815682
613.218	0.79697073
613.416	0.7956003
613.615	0.79450277
613.814	0.7932517
614.012	0.79214054
614.211	0.7908298
614.41	0.78971742
614.608	0.78859465
614.807	0.78736195
615.006	0.78608227
615.204	0.78487346
615.403	0.78375214
615.602	0.78250524
615.8	0.78126159
615.999	0.77962668
616.197	0.77831448
616.396	0.77696685
616.594	0.77563486
616.793	0.77433465
616.991	0.77297707
617.19	0.77152032
617.388	0.77047312
617.586	0.76912779
617.785	0.76788752
617.983	0.76668537
618.182	0.76526738
618.38	0.76396711
618.578	0.76283635
618.777	0.7616883
618.975	0.7606406
619.173	0.75939608
619.372	0.75824917
619.57	0.75695033
619.768	0.75579378
619.966	0.75436715
620.165	0.75273268
620.363	0.75140123
620.561	0.74999807
620.759	0.74864118
620.957	0.74746944
621.155	0.74604268
621.354	0.74483948
621.552	0.74386195
621.75	0.74244027
621.948	0.74133052
622.146	0.74000888
622.344	0.73859444
622.542	0.73736284
622.74	0.73587315
622.938	0.73438037
623.136	0.73317712
623.334	0.731903
623.532	0.73047532
623.73	0.72923535
623.928	0.72794442
624.126	0.72683939
624.324	0.72575663
624.522	0.724252
624.719	0.72271978
624.917	0.72148538
625.115	0.71986973
625.313	0.71847612
625.511	0.71700576
625.708	0.71521591
625.906	0.71375315
626.104	0.71228584
626.302	0.71080526
626.499	0.70939351
626.697	0.70786553
626.895	0.70630109
627.093	0.70501435
627.29	0.70372761
627.488	0.70225801
627.686	0.70100625
627.883	0.69972836
628.081	0.69837433
628.278	0.69724528
628.476	0.69574348
628.673	0.69428235
628.871	0.69300612
629.068	0.69142146
629.266	0.68994352
629.463	0.68852972
629.661	0.68689451
629.858	0.68553335
630.056	0.6840382
630.253	0.68268771
630.451	0.68128852
630.648	0.67974416
630.845	0.6781228
631.043	0.67660479
631.24	0.67510673
631.438	0.67347175
631.635	0.67172606
631.832	0.66997997
632.029	0.66859692
632.227	0.66717992
632.424	0.66586324
632.621	0.66437559
632.818	0.66305632
633.016	0.66170366
633.213	0.66028909
633.41	0.65871349
633.607	0.65710397
633.804	0.65549539
634.001	0.65391099
634.199	0.65234713
634.396	0.65084733
634.593	0.649338
634.79	0.64803388
634.987	0.64658104
635.184	0.64519193
635.381	0.64385642
635.578	0.64254067
635.775	0.64109448
635.972	0.63976646
636.169	0.63825246
636.366	0.63689777
636.563	0.63537565
636.76	0.63376187
636.957	0.63221054
637.153	0.63048306
637.35	0.62892109
637.547	0.62728067
637.744	0.62558794
637.941	0.6241206
638.138	0.62261788
638.334	0.62111802
638.531	0.61986817
638.728	0.61846673
638.925	0.61724107
639.121	0.61607999
639.318	0.61468322
639.515	0.6133582
639.711	0.61208208
639.908	0.61051887
640.105	0.60904144
640.301	0.60754243
640.498	0.60598004
640.695	0.6045882
640.891	0.60317466
641.088	0.60167702
641.284	0.60032594
641.481	0.59906219
641.677	0.59767431
641.874	0.59624076
642.07	0.59477904
642.267	0.59352588
642.463	0.59201226
642.66	0.59061852
642.856	0.58903701
643.053	0.58736281
643.249	0.58588095
643.445	0.58434472
643.642	0.58252113
643.838	0.58101197
644.034	0.57945601
644.231	0.57790571
644.427	0.57658214
644.623	0.57522164
644.82	0.57398813
645.016	0.57266601
645.212	0.57122416
645.408	0.56986192
645.604	0.56862404
645.801	0.56727487
645.997	0.56573644
646.193	0.56424221
646.389	0.56294582
646.585	0.56178125
646.781	0.56053288
646.977	0.55923157
647.173	0.55777116
647.37	0.55645
647.566	0.55504634
647.762	0.55368881
647.958	0.55234285
648.154	0.55084644
648.35	0.54933842
648.546	0.54788868
648.742	0.54657499
648.937	0.54512168
649.133	0.54382203
649.329	0.5424002
649.525	0.54108018
649.721	0.53975961
649.917	0.53852705
650.113	0.53698535
650.309	0.53571108
650.504	0.53419686
650.7	0.53279468
650.896	0.53141739
651.092	0.53003219
651.287	0.52865206
651.483	0.5274336
651.679	0.52600349
651.875	0.52465824
652.07	0.52333779
652.266	0.52188929
652.462	0.52057687
652.657	0.51912573
652.853	0.51766754
653.048	0.51632781
653.244	0.51490408
653.44	0.51336305
653.635	0.51185635
653.831	0.51033283
654.026	0.50906278
654.222	0.50763251
654.417	0.50633265
654.613	0.5050046
654.808	0.5036672
655.004	0.50253555
655.199	0.50130221
655.394	0.49998138
655.59	0.49882793
655.785	0.4973286
655.98	0.49593004
656.176	0.49453536
656.371	0.49318205
656.566	0.49182493
656.762	0.49044129
656.957	0.48904248
657.152	0.48794391
657.348	0.48671125
657.543	0.48560586
657.738	0.48434665
657.933	0.48313173
658.128	0.48180322
658.324	0.48047117
658.519	0.479099
658.714	0.47785256
658.909	0.47641425
659.104	0.47511817
659.299	0.47379112
659.494	0.47251872
659.689	0.4712789
659.884	0.46990151
660.079	0.46860975
660.274	0.46738579
660.469	0.46612077
660.664	0.46496665
660.859	0.46379167
661.054	0.46255241
661.249	0.46138078
661.444	0.4600624
661.639	0.45874961
661.834	0.45738171
662.029	0.45605862
662.224	0.45470302
662.418	0.45344133
662.613	0.45224925
662.808	0.45107072
663.003	0.44988438
663.198	0.4487554
663.392	0.44747337
663.587	0.44645895
663.782	0.4452544
663.977	0.4439899
664.171	0.4428465
664.366	0.44162472
664.561	0.44035564
664.755	0.43913478
664.95	0.4377882
665.144	0.43656953
665.339	0.43543722
665.534	0.43418486
665.728	0.4331208
665.923	0.43204749
666.117	0.4309797
666.312	0.42984392
666.506	0.4287554
666.701	0.42751439
666.895	0.42635963
667.09	0.42500038
667.284	0.42368378
667.479	0.42226073
667.673	0.42103746
667.867	0.41976767
668.062	0.41862927
668.256	0.41746563
668.45	0.41655167
668.645	0.41547245
668.839	0.41448283
669.033	0.41335309
669.228	0.41229494
669.422	0.41118393
669.616	0.41003185
669.81	0.40887272
670.004	0.40781347
670.199	0.40677848
670.393	0.40568493
670.587	0.40454309
670.781	0.40343254
670.975	0.40231689
671.169	0.40099333
671.363	0.39973281
671.558	0.39847816
671.752	0.39737201
671.946	0.39626905
672.14	0.39515734
672.334	0.39403835
672.528	0.39317819
672.722	0.39213012
672.916	0.39111672
673.11	0.38997491
673.304	0.38896016
673.497	0.38782362
673.691	0.38685785
673.885	0.38562568
674.079	0.38463486
674.273	0.38353324
674.467	0.3825895
674.661	0.38157354
674.854	0.38052751
675.048	0.37948886
675.242	0.37853296
675.436	0.37753076
675.629	0.37660948
675.823	0.37556166
676.017	0.37452551
676.211	0.3734132
676.404	0.37233736
676.598	0.37134019
676.792	0.37034476
676.985	0.36931425
677.179	0.36817933
677.372	0.36717759
677.566	0.36637231
677.76	0.365499
677.953	0.36450818
678.147	0.36353031
678.34	0.36254297
678.534	0.36158856
678.727	0.36056898
678.921	0.3595531
679.114	0.3583728
679.307	0.3574683
679.501	0.35641589
679.694	0.3554189
679.888	0.35444778
680.081	0.35359499
680.274	0.35250514
680.468	0.35153119
680.661	0.35042579
680.854	0.34960912
681.048	0.34876595
681.241	0.3479068
681.434	0.34696339
681.627	0.3461442
681.821	0.34535131
682.014	0.34454357
682.207	0.34348757
682.4	0.34260462
682.593	0.34180177
682.786	0.34101741
682.98	0.3403544
683.173	0.33972066
683.366	0.33902807
683.559	0.33846916
683.752	0.3377581
683.945	0.33697246
684.138	0.33613985
684.331	0.33522642
684.524	0.33439368
684.717	0.33348714
684.91	0.33256929
685.103	0.33165244
685.296	0.33073588
685.489	0.32980602
685.682	0.32881996
685.874	0.32784532
686.067	0.32687353
686.26	0.32590448
686.453	0.32496606
686.646	0.32403574
686.839	0.3232406
687.031	0.32248723
687.224	0.32157603
687.417	0.32090259
687.61	0.32015913
687.802	0.3193822
687.995	0.31867896
688.188	0.31799257
688.38	0.31725751
688.573	0.31660996
688.766	0.31582526
688.958	0.31505163
689.151	0.31428728
689.343	0.3135148
689.536	0.31263172
689.729	0.31180477
689.921	0.31088886
690.114	0.30991906
690.306	0.30906306
690.499	0.3082035
690.691	0.30745965
690.884	0.30668649
691.076	0.30597809
691.268	0.30530828
691.461	0.30469442
691.653	0.30407954
691.846	0.30351146
692.038	0.3028565
692.23	0.30216991
692.423	0.30148201
692.615	0.3008227
692.807	0.30026412
692.999	0.29962461
693.192	0.29894844
693.384	0.29830835
693.576	0.2976581
693.768	0.29702423
693.961	0.29635298
694.153	0.29576306
694.345	0.29512804
694.537	0.29454256
694.729	0.29390554
694.921	0.29328881
695.113	0.29277421
695.305	0.29220251
695.498	0.29147546
695.69	0.2908524
695.882	0.29012458
696.074	0.28956084
696.266	0.28896424
696.458	0.28823502
696.65	0.28766081
696.842	0.28704502
697.033	0.28645198
697.225	0.28585755
697.417	0.28517605
697.609	0.2844416
697.801	0.2837675
697.993	0.28304507
698.185	0.28236793
698.376	0.28176087
698.568	0.28123707
698.76	0.28079396
698.952	0.28041257
699.144	0.28006758
699.335	0.27980046
699.527	0.27949151
699.719	0.27903415
699.91	0.27853937
700.102	0.27795008
700.294	0.27738351
700.485	0.27672798
700.677	0.27601643
700.869	0.2754948
701.06	0.27497445
701.252	0.27446859
701.443	0.27400552
701.635	0.2735272
701.826	0.27308456
702.018	0.27270046
702.209	0.27224752
702.401	0.27186646
702.592	0.27147259
702.784	0.27100334
702.975	0.27056672
703.166	0.27023352
703.358	0.26972348
703.549	0.26918284
703.741	0.26860896
703.932	0.26806649
704.123	0.26755049
704.315	0.26710045
704.506	0.26661074
704.697	0.26618395
704.888	0.26582585
705.08	0.26549276
705.271	0.26517106
705.462	0.26478318
705.653	0.26434726
705.844	0.26392438
706.035	0.26355374
706.227	0.26317376
706.418	0.26271945
706.609	0.26239488
706.8	0.26213009
706.991	0.26181758
707.182	0.26152819
707.373	0.26118452
707.564	0.26084823
707.755	0.26062036
707.946	0.26035587
708.137	0.26008041
708.328	0.25989594
708.519	0.25964983
708.71	0.2594381
708.901	0.25919751
709.092	0.25896953
709.283	0.25865793
709.473	0.25832329
709.664	0.25801779
709.855	0.2576472
710.046	0.2573456
710.237	0.2570057
710.427	0.25656411
710.618	0.25617987
710.809	0.2558688
711	0.25558486
711.19	0.25539233
711.381	0.25523572
711.572	0.25506918
711.762	0.25504429
711.953	0.25493646
712.144	0.25476112
712.334	0.25446301
712.525	0.25420149
712.715	0.253851
712.906	0.25348132
713.097	0.25301996
713.287	0.25262413
713.478	0.2523545
713.668	0.25222052
713.859	0.25209835
714.049	0.25200568
714.239	0.25201626
714.43	0.25200202
714.62	0.25194992
714.811	0.25183306
715.001	0.25170474
715.191	0.2514238
715.382	0.2510572
715.572	0.25072819
715.762	0.25040569
715.953	0.25014026
716.143	0.24983745
716.333	0.24950177
716.523	0.24929756
716.714	0.24917988
716.904	0.24897331
717.094	0.24882372
717.284	0.24871645
717.474	0.24865352
717.664	0.24862232
717.855	0.24853938
718.045	0.24847199
718.235	0.24840783
718.425	0.24833932
718.615	0.24819085
718.805	0.24798519
718.995	0.24782679
719.185	0.24770904
719.375	0.24756057
719.565	0.24745554
719.755	0.24736251
719.945	0.24738967
720.135	0.24746891
720.325	0.24753293
720.515	0.24759299
720.704	0.24763377
720.894	0.24767967
721.084	0.24763823
721.274	0.24755347
721.464	0.24751097
721.654	0.24751879
721.843	0.24749024
722.033	0.24749884
722.223	0.24745335
722.413	0.24743746
722.602	0.24739296
722.792	0.24730451
722.982	0.24721856
723.171	0.24726963
723.361	0.24729976
723.55	0.24743115
723.74	0.24754541
723.93	0.24763675
724.119	0.24782555
724.309	0.24784577
724.498	0.24776367
724.688	0.24766559
724.877	0.24747752
725.067	0.24736444
725.256	0.24725811
725.446	0.24699499
725.635	0.24673422
725.825	0.24653736
726.014	0.24638726
726.203	0.24636163
726.393	0.24629326
726.582	0.24621724
726.771	0.24628207
726.961	0.24641097
727.15	0.24655528
727.339	0.24669223
727.529	0.24677706
727.718	0.24679041
727.907	0.24682577
728.096	0.24683447
728.286	0.24687548
728.475	0.24686258
728.664	0.24689421
728.853	0.24696568
729.042	0.24707635
729.231	0.24723314
729.42	0.24729796
729.609	0.24733425
729.799	0.24731707
729.988	0.24731077
730.177	0.24719095
730.366	0.2471797
730.555	0.24714422
730.744	0.2472273
730.933	0.24731905
731.122	0.24742581
731.31	0.24759595
731.499	0.24780933
731.688	0.24811993
731.877	0.24833888
732.066	0.24851552
732.255	0.24862526
732.444	0.24877974
732.632	0.24886697
732.821	0.249029
733.01	0.24904355
733.199	0.24913676
733.388	0.24927179
733.576	0.24949659
733.765	0.24970988
733.954	0.24990831
734.142	0.25004022
734.331	0.25016472
734.52	0.25023788
734.708	0.25029057
734.897	0.25032141
735.086	0.25028865
735.274	0.25024149
735.463	0.25020719
735.651	0.2502309
735.84	0.25030117
736.028	0.25041375
736.217	0.25059309
736.405	0.25084654
736.594	0.25111194
736.782	0.25138991
736.971	0.25162835
737.159	0.2518688
737.347	0.25208405
737.536	0.2522138
737.724	0.25231138
737.912	0.25234708
738.101	0.25234474
738.289	0.25237667
738.477	0.2524094
738.666	0.25235196
738.854	0.252396
739.042	0.25251542
739.23	0.25267045
739.418	0.25289573
739.607	0.25321146
739.795	0.25358023
739.983	0.25410989
740.171	0.25458229
740.359	0.25506031
740.547	0.25549709
740.735	0.2558653
740.923	0.25618221
741.112	0.25643303
741.3	0.25650217
741.488	0.25656108
741.676	0.25657987
741.864	0.25670808
742.052	0.25684636
742.239	0.25690532
742.427	0.25700529
742.615	0.25719074
742.803	0.25736987
742.991	0.25763216
743.179	0.25790182
743.367	0.2582326
743.555	0.25872483
743.742	0.25914657
743.93	0.2596423
744.118	0.25999786
744.306	0.26032735
744.494	0.26054752
744.681	0.26070403
744.869	0.26081664
745.057	0.26101047
745.244	0.26113592
745.432	0.26141538
745.62	0.26162374
745.807	0.2620414
745.995	0.26247032
746.182	0.26277088
746.37	0.26308611
746.558	0.26340016
746.745	0.26369574
746.933	0.26399517
747.12	0.26420031
747.308	0.26441332
747.495	0.26460708
747.683	0.26476012
747.87	0.26496432
748.057	0.26519441
748.245	0.26547741
748.432	0.26565611
748.62	0.26587081
748.807	0.2661772
748.994	0.26650209
749.182	0.26678049
749.369	0.26708964
749.556	0.26733111
749.743	0.26758962
749.931	0.26786323
750.118	0.26820349
750.305	0.26853562
750.492	0.26893203
750.68	0.2692638
750.867	0.2696612
751.054	0.27013699
751.241	0.27057042
751.428	0.27097959
751.615	0.27148242
751.802	0.27195059
751.989	0.27242925
752.176	0.27298534
752.363	0.27344577
752.55	0.27384526
752.737	0.27420292
752.924	0.27441695
753.111	0.27460786
753.298	0.2747404
753.485	0.27476332
753.672	0.27479861
753.859	0.27491311
754.046	0.27497512
754.233	0.27515954
754.42	0.27538319
754.606	0.27561688
754.793	0.27591724
754.98	0.27630505
755.167	0.27667782
755.353	0.27721385
755.54	0.277611
755.727	0.27791146
755.914	0.27829917
756.1	0.27864377
756.287	0.27890423
756.474	0.279117
756.66	0.27920474
756.847	0.2793531
757.033	0.2794735
757.22	0.27967384
757.407	0.27990387
757.593	0.28016837
757.78	0.28045607
757.966	0.28087746
758.153	0.28126682
758.339	0.28170448
758.526	0.282123
758.712	0.28253887
758.898	0.28304003
759.085	0.28357772
759.271	0.28403361
759.458	0.28461151
759.644	0.28535478
759.83	0.28596944
760.017	0.28656099
760.203	0.2870327
760.389	0.28751384
760.576	0.28785157
760.762	0.28811602
760.948	0.28814473
761.134	0.28824033
761.32	0.2883434
761.507	0.28851431
761.693	0.28874868
761.879	0.28904066
762.065	0.28931626
762.251	0.28970166
762.437	0.29012524
762.623	0.29044598
762.809	0.29076474
762.995	0.29103436
763.181	0.29145694
763.367	0.29198396
763.553	0.29251766
763.739	0.29305597
763.925	0.2936561
764.111	0.29423572
764.297	0.29486664
764.483	0.29529476
764.669	0.29557683
764.855	0.29584845
765.041	0.29613854
765.227	0.29634223
765.412	0.2965122
765.598	0.2966617
765.784	0.29703899
765.97	0.29759238
766.156	0.29818173
766.341	0.29868111
766.527	0.2992577
766.713	0.29996164
766.898	0.30062811
767.084	0.30112094
767.27	0.30141297
767.455	0.30181839
767.641	0.30232276
767.827	0.30284162
768.012	0.30332698
768.198	0.30380221
768.383	0.30429817
768.569	0.30492232
768.754	0.30554028
768.94	0.30607118
769.125	0.30661677
769.311	0.30696489
769.496	0.30735014
769.682	0.3078535
769.867	0.30836061
770.052	0.30880358
770.238	0.30917379
770.423	0.30954621
770.608	0.31005592
770.794	0.31054237
770.979	0.31094241
771.164	0.31130652
771.35	0.31159613
771.535	0.3119794
771.72	0.31228489
771.905	0.31267258
772.09	0.31310005
772.276	0.31354125
772.461	0.31402514
772.646	0.31452922
772.831	0.31496986
773.016	0.31554957
773.201	0.3160184
773.386	0.31655194
773.571	0.31690814
773.756	0.3171693
773.941	0.31741799
774.126	0.3178574
774.311	0.31816824
774.496	0.31843844
774.681	0.31869778
774.866	0.31916236
775.051	0.31960885
775.236	0.32016125
775.421	0.32056872
775.606	0.32106095
775.791	0.32157311
775.976	0.32197329
776.16	0.32233657
776.345	0.32280314
776.53	0.32315181
776.715	0.32348722
776.899	0.32380005
777.084	0.32417402
777.269	0.32460252
777.454	0.32500369
777.638	0.32539338
777.823	0.32578596
778.008	0.32604434
778.192	0.32637851
778.377	0.32666353
778.561	0.32694841
778.746	0.32721497
778.931	0.3274433
779.115	0.32766714
779.3	0.32799
779.484	0.32825381
779.669	0.32861407
779.853	0.32897403
780.037	0.32939221
780.222	0.3297983
780.406	0.33020292
780.591	0.33052972
780.775	0.33087331
780.959	0.33116232
781.144	0.33139015
781.328	0.33148449
781.512	0.33144923
781.697	0.33152959
781.881	0.33166344
782.065	0.33166546
782.249	0.33144845
782.434	0.3313669
782.618	0.33137577
782.802	0.33155616
782.986	0.33161555
783.17	0.33166508
783.354	0.33185735
783.539	0.33225359
783.723	0.33258865
783.907	0.33304985
784.091	0.33346113
784.275	0.33402434
784.459	0.33448805
784.643	0.33492502
784.827	0.33534225
785.011	0.33576195
785.195	0.33604382
785.379	0.33640899
785.563	0.3365532
785.747	0.33685223
785.93	0.33714205
786.114	0.33725689
786.298	0.33732843
786.482	0.33747735
786.666	0.33755651
786.85	0.33768802
787.033	0.33778987
787.217	0.33801994
787.401	0.33835581
787.585	0.33869073
787.768	0.33908338
787.952	0.33942109
788.136	0.33981501
788.319	0.34027703
788.503	0.3406742
788.687	0.34125479
788.87	0.34175347
789.054	0.34219592
789.237	0.34271324
789.421	0.34325035
789.605	0.3437047
789.788	0.34405935
789.972	0.34433118
790.155	0.34467581
790.338	0.34495135
790.522	0.34524847
790.705	0.3455417
790.889	0.34579785
791.072	0.34620213
791.256	0.34658375
791.439	0.34702543
791.622	0.34746009
791.806	0.3479644
791.989	0.34837567
792.172	0.34896539
792.355	0.34936887
792.539	0.34982216
792.722	0.35009607
792.905	0.35036056
793.088	0.35058094
793.271	0.35100805
793.455	0.3513568
793.638	0.35179267
793.821	0.35208797
794.004	0.35252005
794.187	0.35305955
794.37	0.35350127
794.553	0.35391983
794.736	0.35426479
794.919	0.3546119
795.102	0.35519124
795.285	0.35587116
795.468	0.35642737
795.651	0.35718378
795.834	0.35797541
796.017	0.35879372
796.2	0.35956651
796.383	0.36024554
796.566	0.36085048
796.749	0.36147893
796.931	0.36193423
797.114	0.36215186
797.297	0.36239604
797.48	0.36261474
797.663	0.36278661
797.845	0.3629341
798.028	0.36311362
798.211	0.36336618
798.393	0.36365219
798.576	0.36395885
798.759	0.36418304
798.941	0.36444768
799.124	0.36475676
799.307	0.36513866
799.489	0.36548162
799.672	0.36590516
799.854	0.36615497
800.037	0.36660601
800.219	0.36695589
800.402	0.36733334
800.584	0.36755309
800.767	0.36783118
800.949	0.36817241
801.132	0.36867638
801.314	0.36915851
801.496	0.36962738
801.679	0.36991758
801.861	0.37022674
802.043	0.37039934
802.226	0.37050009
802.408	0.37062082
802.59	0.37073034
802.772	0.37104905
802.955	0.37154672
803.137	0.37197451
803.319	0.37244244
803.501	0.37289884
803.684	0.37335711
803.866	0.3737523
804.048	0.37407911
804.23	0.37428417
804.412	0.37457384
804.594	0.37480547
804.776	0.37518441
804.958	0.37540458
805.14	0.3756624
805.322	0.37581768
805.504	0.37600448
805.686	0.37609222
805.868	0.3761838
806.05	0.37616342
806.232	0.37627018
806.414	0.37654404
806.596	0.37677107
806.778	0.37693781
806.96	0.37729571
807.141	0.37764715
807.323	0.37795378
807.505	0.37803364
807.687	0.37799671
807.869	0.37787442
808.05	0.37773235
808.232	0.37746425
808.414	0.37719389
808.595	0.37690238
808.777	0.37697212
808.959	0.37704298
809.14	0.37724451
809.322	0.37748609
809.504	0.37768002
809.685	0.37796809
809.867	0.37808203
810.048	0.37804365
810.23	0.37794859
810.411	0.37777204
810.593	0.37774884
810.774	0.37781257
810.956	0.37780921
811.137	0.37800893
811.319	0.37824152
811.5	0.37843577
811.681	0.37873434
811.863	0.37886862
812.044	0.37902576
812.225	0.37933226
812.407	0.37939203
812.588	0.37936223
812.769	0.37932886
812.951	0.37935326
813.132	0.37947614
813.313	0.37966158
813.494	0.37969271
813.675	0.37996635
813.857	0.38036633
814.038	0.38089947
814.219	0.38117185
814.4	0.38131786
814.581	0.38157087
814.762	0.38177416
814.943	0.38196499
815.124	0.3820327
815.305	0.38200833
815.486	0.38218083
815.667	0.38232618
815.848	0.3823689
816.029	0.3824831
816.21	0.38269548
816.391	0.38298811
816.572	0.38319739
816.753	0.38351077
816.934	0.38385142
817.115	0.3841361
817.295	0.38441111
817.476	0.38448411
817.657	0.3846018
817.838	0.38497358
818.019	0.38518312
818.199	0.38559231
818.38	0.38587609
818.561	0.38624821
818.741	0.38670009
818.922	0.38713418
819.103	0.38754274
819.283	0.38788016
819.464	0.38822645
819.645	0.38861358
819.825	0.38903871
820.006	0.38948205
820.186	0.38995985
820.367	0.39015703
820.547	0.39046412
820.728	0.39069012
820.908	0.390908
821.089	0.39109378
821.269	0.39110669
821.45	0.3911365
821.63	0.39120141
821.81	0.39142061
821.991	0.39147728
822.171	0.39164933
822.351	0.39180416
822.532	0.39209105
822.712	0.39224799
822.892	0.39260561
823.072	0.39274879
823.253	0.39320732
823.433	0.39348473
823.613	0.39382317
823.793	0.39421584
823.973	0.39479001
824.154	0.39526262
824.334	0.39587812
824.514	0.39623473
824.694	0.39678898
824.874	0.39711411
825.054	0.39755479
825.234	0.39782202
825.414	0.39796058
825.594	0.39809655
825.774	0.39828106
825.954	0.39824086
826.134	0.39829853
826.314	0.39823621
826.494	0.3982831
826.674	0.39826287
826.854	0.39837349
827.033	0.39839976
827.213	0.39879112
827.393	0.39910928
827.573	0.39947081
827.753	0.39968519
827.932	0.40021738
828.112	0.4006871
828.292	0.40124898
828.472	0.40133111
828.651	0.40163425
828.831	0.40170683
829.011	0.40196671
829.19	0.4019115
829.37	0.40196243
829.549	0.40193049
829.729	0.4021717
829.909	0.4022694
830.088	0.40250579
830.268	0.40257896
830.447	0.40297202
830.627	0.40326881
830.806	0.40358724
830.986	0.40372317
831.165	0.40395931
831.344	0.40423916
831.524	0.40443238
831.703	0.40450817
831.883	0.40446582
832.062	0.40449113
832.241	0.40468647
832.421	0.40490267
832.6	0.40511551
832.779	0.40541645
832.958	0.40557184
833.138	0.40556948
833.317	0.40579162
833.496	0.40593873
833.675	0.40603083
833.854	0.4061115
834.034	0.40611461
834.213	0.40614073
834.392	0.40655143
834.571	0.40656741
834.75	0.40676353
834.929	0.40685875
835.108	0.40685983
835.287	0.40706998
835.466	0.40730245
835.645	0.40733902
835.824	0.40759572
836.003	0.40778922
836.182	0.40806398
836.361	0.40834866
836.54	0.40847614
836.719	0.40878346
836.897	0.40895228
837.076	0.40903421
837.255	0.40911658
837.434	0.40915078
837.613	0.40921651
837.791	0.40924512
837.97	0.40919281
838.149	0.40912147
838.328	0.40909323
838.506	0.40889374
838.685	0.40874509
838.864	0.40880918
839.042	0.40883343
839.221	0.40909479
839.4	0.40930433
839.578	0.40957084
839.757	0.40985324
839.935	0.41022347
840.114	0.41039248
840.292	0.41043639
840.471	0.41035497
840.649	0.41041079
840.828	0.41037216
841.006	0.41039514
841.185	0.41026
841.363	0.41044291
841.541	0.41070574
841.72	0.41107182
841.898	0.41149769
842.076	0.41178595
842.255	0.41204374
842.433	0.41255327
842.611	0.41272715
842.789	0.41299787
842.968	0.41325435
843.146	0.41325489
843.324	0.41349638
843.502	0.41373931
843.68	0.41385839
843.859	0.41381959
844.037	0.41369478
844.215	0.41336697
844.393	0.41322047
844.571	0.41290559
844.749	0.41274068
844.927	0.41244137
845.105	0.41226561
845.283	0.41214311
845.461	0.41222918
845.639	0.41238742
845.817	0.4124191
845.995	0.41256997
846.173	0.41275197
846.351	0.41277347
846.529	0.41281795
846.706	0.41267914
846.884	0.41255619
847.062	0.41252648
847.24	0.41239693
847.418	0.41240604
847.595	0.41258694
847.773	0.41285526
847.951	0.41295917
848.129	0.41289458
848.306	0.41302986
848.484	0.41288361
848.662	0.41273069
848.839	0.41258606
849.017	0.41230034
849.194	0.41212679
849.372	0.41206853
849.549	0.41190814
849.727	0.41198136
849.905	0.41187651
850.082	0.41203736
850.26	0.41226011
850.437	0.41244921
850.614	0.41275308
850.792	0.41283487
850.969	0.41314907
851.147	0.41345379
851.324	0.4134416
851.501	0.41341114
851.679	0.4134161
851.856	0.41325686
852.033	0.41366461
852.211	0.41376404
852.388	0.41377004
852.565	0.41396721
852.742	0.41416188
852.92	0.41425763
853.097	0.41442847
853.274	0.4143285
853.451	0.41404324
853.628	0.41391862
853.805	0.41369003
853.982	0.41350301
854.159	0.4132494
854.336	0.41303226
854.514	0.41274953
854.691	0.41265335
854.868	0.41266985
855.045	0.41267103
855.221	0.41277455
855.398	0.41287053
855.575	0.41267491
855.752	0.41272805
855.929	0.41281923
856.106	0.41261077
856.283	0.4124802
856.46	0.41231019
856.637	0.41246496
856.813	0.41261071
856.99	0.41230727
857.167	0.41205724
857.344	0.41202801
857.52	0.41198474
857.697	0.41165527
857.874	0.41122274
858.05	0.41112781
858.227	0.41109081
858.404	0.41116547
858.58	0.41120396
858.757	0.41113605
858.933	0.41138175
859.11	0.41152392
859.287	0.41132958
859.463	0.41125462
859.64	0.411204
859.816	0.41098893
859.993	0.41090886
860.169	0.41082992
860.345	0.41064578
860.522	0.41086038
860.698	0.41086261
860.875	0.41081644
861.051	0.41106106
861.227	0.41109524
861.404	0.41116187
861.58	0.4113467
861.756	0.41127346
861.932	0.41143766
862.109	0.41117335
862.285	0.41102559
862.461	0.41102828
862.637	0.41082366
862.813	0.41057744
862.99	0.41025875
863.166	0.40979443
863.342	0.40990991
863.518	0.40933805
863.694	0.4089753
863.87	0.40861362
864.046	0.40823255
864.222	0.40790937
864.398	0.40781168
864.574	0.40728132
864.75	0.40732847
864.926	0.40718343
865.102	0.40710008
865.278	0.40696732
865.454	0.4069809
865.63	0.40669819
865.805	0.40671564
865.981	0.40664185
866.157	0.40675736
866.333	0.40661229
866.509	0.40674399
866.684	0.40675337
866.86	0.40729475
867.036	0.40734866
867.212	0.40712265
867.387	0.40679074
867.563	0.40674535
867.739	0.40641561
867.914	0.4062267
868.09	0.40565273
868.265	0.40527725
868.441	0.40513951
868.617	0.40499018
868.792	0.40484946
868.968	0.4047963
869.143	0.4047321
869.319	0.40473312
869.494	0.40465513
869.67	0.40469543
869.845	0.40454769
870.02	0.40447193
870.196	0.40434409
870.371	0.40424171
870.546	0.40400026
870.722	0.40408019
870.897	0.4038439
871.072	0.40370513
871.248	0.40324921
871.423	0.40299325
871.598	0.40275223
871.773	0.40234561
871.949	0.40192563
872.124	0.4017284
872.299	0.40133904
872.474	0.40120038
872.649	0.40100013
872.824	0.40071104
872.999	0.40083646
873.174	0.4008733
873.349	0.40064942
873.524	0.40049928
873.699	0.40039608
873.874	0.4001147
874.049	0.39985644
874.224	0.39923904
874.399	0.39860751
874.574	0.39839524
874.749	0.3981577
874.924	0.39775572
875.099	0.39746659
875.274	0.39726555
875.449	0.39743855
875.623	0.39731366
875.798	0.39686764
875.973	0.39665361
876.148	0.39633503
876.322	0.39625447
876.497	0.39581441
876.672	0.3952054
876.846	0.39495148
877.021	0.39459846
877.196	0.39401169
877.37	0.39400997
877.545	0.39390231
877.72	0.39368399
877.894	0.39359731
878.069	0.39320948
878.243	0.39292054
878.418	0.39289551
878.592	0.3923942
878.767	0.39193576
878.941	0.39195856
879.116	0.39171542
879.29	0.3916882
879.464	0.39163776
879.639	0.39155477
879.813	0.3918277
879.987	0.39166621
880.162	0.3913818
880.336	0.39129308
880.51	0.39134973
880.685	0.39130418
880.859	0.39125274
881.033	0.39073399
881.207	0.39046169
881.381	0.39041107
881.556	0.39009346
881.73	0.38968499
881.904	0.38963553
882.078	0.38925728
882.252	0.38904905
882.426	0.38876035
882.6	0.38831675
882.774	0.38805878
882.948	0.38762988
883.122	0.38696989
883.296	0.38638288
883.47	0.38614065
883.644	0.38600385
883.818	0.38551573
883.992	0.38532425
884.166	0.38541887
884.34	0.38536065
884.514	0.38567872
884.687	0.38547575
884.861	0.38520779
885.035	0.38528937
885.209	0.38496615
885.382	0.38439103
885.556	0.3840396
885.73	0.38351358
885.904	0.3833217
886.077	0.38302535
886.251	0.382679
886.425	0.38239562
886.598	0.38221744
886.772	0.38190785
886.945	0.38148867
887.119	0.38116143
887.292	0.38091078
887.466	0.38098144
887.64	0.38075449
887.813	0.38054875
887.986	0.38045289
888.16	0.38041584
888.333	0.37995225
888.507	0.37975764
888.68	0.37913688
888.854	0.37890217
889.027	0.37851671
889.2	0.37844361
889.374	0.3781667
889.547	0.37813766
889.72	0.37799305
889.893	0.37760325
890.067	0.37726448
890.24	0.37682253
890.413	0.37617874
890.586	0.3754106
890.759	0.37493982
890.933	0.37438287
891.106	0.37405053
891.279	0.37367208
891.452	0.37351045
891.625	0.37318003
891.798	0.37327647
891.971	0.37311867
892.144	0.3728954
892.317	0.37289378
892.49	0.37271491
892.663	0.37259319
892.836	0.37268459
893.009	0.37259162
893.182	0.37230108
893.355	0.3722918
893.527	0.37202544
893.7	0.37203339
893.873	0.37179031
894.046	0.37132713
894.219	0.37102886
894.391	0.37075825
894.564	0.37032186
894.737	0.36980613
894.91	0.3692475
895.082	0.36892373
895.255	0.36858301
895.428	0.36812555
895.6	0.36760719
895.773	0.36693808
895.945	0.3664295
896.118	0.36594836
896.291	0.36546521
896.463	0.36502035
896.636	0.36450572
896.808	0.36402939
896.981	0.36368526
897.153	0.3631525
897.326	0.36270472
897.498	0.36202616
897.67	0.36155679
897.843	0.36128148
898.015	0.36121315
898.187	0.36100497
898.36	0.36070744
898.532	0.36031593
898.704	0.36038816
898.877	0.36003829
899.049	0.3596924
899.221	0.35927247
899.393	0.35884927
899.566	0.35869623
899.738	0.35856157
899.91	0.35799543
900.082	0.35745146
900.254	0.35698585
900.426	0.3564614
900.598	0.35620529
900.77	0.35581667
900.942	0.35543785
901.114	0.35528722
901.286	0.35536488
901.458	0.35534242
901.63	0.35531052
901.802	0.35528046
901.974	0.35531583
902.146	0.35510497
902.318	0.35485224
902.49	0.35461054
902.662	0.3541312
902.834	0.35366564
903.005	0.3532626
903.177	0.35266611
903.349	0.35236614
903.521	0.351729
903.693	0.35124191
903.864	0.35085284
904.036	0.350389
904.208	0.34969495
904.379	0.34920274
904.551	0.34887044
904.723	0.34864412
904.894	0.3480291
905.066	0.34770701
905.237	0.34754953
905.409	0.3472288
905.58	0.34709037
905.752	0.34648249
905.923	0.34590593
906.095	0.34556358
906.266	0.34503524
906.438	0.34446827
906.609	0.34404239
906.78	0.343425
906.952	0.34314581
907.123	0.34288974
907.295	0.34294645
907.466	0.34298026
907.637	0.34300232
907.808	0.34281799
907.98	0.3426984
908.151	0.34241824
908.322	0.34231421
908.493	0.3417236
908.665	0.34120443
908.836	0.34051034
909.007	0.34013739
909.178	0.33957688
909.349	0.33926059
909.52	0.33884564
909.691	0.33836166
909.862	0.33804776
910.033	0.33751254
910.204	0.33710318
910.375	0.33682731
910.546	0.33636236
910.717	0.33573952
910.888	0.33542525
911.059	0.3347862
911.23	0.33449557
911.401	0.33395281
911.572	0.33343183
911.742	0.33299684
911.913	0.33269345
912.084	0.3322018
912.255	0.33188414
912.426	0.33139937
912.596	0.33095005
912.767	0.33066355
912.938	0.33013713
913.108	0.32970683
913.279	0.32924175
913.45	0.32875207
913.62	0.32842977
913.791	0.32801674
913.962	0.3276766
914.132	0.32726541
914.303	0.32676591
914.473	0.32644223
914.644	0.32615372
914.814	0.32576743
914.985	0.32568523
915.155	0.32520215
915.326	0.32483816
915.496	0.32473301
915.666	0.32438434
915.837	0.32425308
916.007	0.32370987
916.177	0.32282535
916.348	0.3224176
916.518	0.32204367
916.688	0.32143554
916.858	0.32107128
917.029	0.32035679
917.199	0.32024827
917.369	0.32035375
917.539	0.32023249
917.709	0.32003425
917.88	0.31973459
918.05	0.31951214
918.22	0.3193272
918.39	0.3190033
918.56	0.31877982
918.73	0.31866448
918.9	0.31832817
919.07	0.31806271
919.24	0.31772542
919.41	0.31757306
919.58	0.31706831
919.75	0.31664476
919.92	0.31586326
920.09	0.31552385
920.26	0.31508181
920.429	0.31477326
920.599	0.3142945
920.769	0.31401376
920.939	0.31353769
921.109	0.31311733
921.278	0.31256114
921.448	0.31223032
921.618	0.3116271
921.787	0.3112188
921.957	0.31063676
922.127	0.31000844
922.296	0.30968186
922.466	0.30928272
922.636	0.30883092
922.805	0.30841783
922.975	0.30782743
923.144	0.30749232
923.314	0.30729422
923.483	0.30687179
923.653	0.30660988
923.822	0.30627243
923.992	0.30613679
924.161	0.30573805
924.331	0.30542738
924.5	0.30491512
924.669	0.30438556
924.839	0.30401273
925.008	0.30343449
925.177	0.3025498
925.347	0.30225117
925.516	0.30204482
925.685	0.30178151
925.854	0.30166242
926.023	0.30116763
926.193	0.3010352
926.362	0.30089332
926.531	0.30061903
926.7	0.30004608
926.869	0.29969227
927.038	0.29885428
927.207	0.29831837
927.376	0.2976526
927.545	0.29718366
927.715	0.29659857
927.884	0.2962702
928.052	0.29578565
928.221	0.29548502
928.39	0.29500772
928.559	0.29471167
928.728	0.29457139
928.897	0.29442802
929.066	0.29412444
929.235	0.29361757
929.404	0.29319695
929.572	0.29285948
929.741	0.29251761
929.91	0.29184596
930.079	0.29095341
930.247	0.29036062
930.416	0.29014605
930.585	0.28983715
930.753	0.28957071
930.922	0.28916703
931.091	0.28883082
931.259	0.28852227
931.428	0.28801182
931.596	0.28746682
931.765	0.2871784
931.934	0.28679815
932.102	0.28593615
932.27	0.28544033
932.439	0.28492911
932.607	0.28454147
932.776	0.28437391
932.944	0.28398858
933.113	0.28370402
933.281	0.28356049
933.449	0.28300499
933.618	0.28251512
933.786	0.28220316
933.954	0.28149146
934.123	0.28089968
934.291	0.28049301
934.459	0.28008461
934.627	0.27993926
934.795	0.27976514
934.964	0.27932638
935.132	0.27871243
935.3	0.27826892
935.468	0.27743031
935.636	0.27702917
935.804	0.27631855
935.972	0.27594813
936.14	0.27576129
936.308	0.27574409
936.476	0.2757975
936.644	0.27622823
936.812	0.27637272
936.98	0.27665962
937.148	0.27653119
937.316	0.27596786
937.484	0.27619812
937.652	0.27527527
937.82	0.2752825
937.987	0.27447716
938.155	0.27366528
938.323	0.27356963
938.491	0.27309612
938.658	0.27328264
938.826	0.27347377
938.994	0.27215767
939.162	0.27265809
939.329	0.27349147
939.497	0.27408414
939.665	0.27442353
939.832	0.27447046
940	0.27496166
940.167	0.27553976
940.335	0.27476277
940.502	0.27394614
940.67	0.2728173
940.837	0.27308185
941.005	0.27168798
941.172	0.2715308
941.34	0.27146379
941.507	0.27301509
941.674	0.274389
941.842	0.27462724
942.009	0.2749773
942.177	0.27383938
942.344	0.27468026
942.511	0.27404058
942.678	0.27324737
942.846	0.27091352
943.013	0.27068772
943.18	0.26922926
943.347	0.26992127
943.514	0.26843612
943.682	0.26954674
943.849	0.26806423
944.016	0.26797991
944.183	0.26724017
944.35	0.26700366
944.517	0.26682879
944.684	0.26756179
944.851	0.26325341
945.018	0.26314902
945.185	0.26287339
945.352	0.26191864
945.519	0.26161299
945.686	0.26062352
945.853	0.26104025
946.02	0.26060084
946.187	0.26044272
946.353	0.26120325
946.52	0.26168419
946.687	0.26054197
946.854	0.2602485
947.021	0.25815536
947.187	0.25910012
947.354	0.25741837
947.521	0.25566415
947.687	0.25335476
947.854	0.25260209
948.021	0.25185079
948.187	0.25093901
948.354	0.25034442
948.52	0.25006788
948.687	0.25041241
948.854	0.2513179
949.02	0.2502798
949.187	0.25031206
949.353	0.2501044
949.52	0.24870317
949.686	0.24829732
949.852	0.24782756
950.019	0.24757526
950.185	0.24876601
950.352	0.24771989
950.518	0.24667545
950.684	0.24685039
950.851	0.24613274
951.017	0.24441901
951.183	0.24373263
951.349	0.24262169
951.516	0.24063419
951.682	0.24013452
951.848	0.23910516
952.014	0.23802161
952.18	0.23779825
952.346	0.23634446
952.512	0.2354663
952.679	0.23612065
952.845	0.23555696
953.011	0.23544361
953.177	0.23569161
953.343	0.23447222
953.509	0.23459789
953.675	0.23398211
953.841	0.23294829
954.007	0.23294154
954.172	0.23323009
954.338	0.23193788
954.504	0.23180054
954.67	0.23001488
954.836	0.23001464
955.002	0.2295381
955.167	0.22884521
955.333	0.22659266
955.499	0.22603418
955.665	0.22498724
955.83	0.22547562
955.996	0.22488712
956.162	0.22426459
956.327	0.22298904
956.493	0.22308181
956.659	0.22299499
956.824	0.22235614
956.99	0.22138965
957.155	0.22068323
957.321	0.22069276
957.486	0.22069249
957.652	0.22012138
957.817	0.22030122
957.983	0.21970899
958.148	0.21958994
958.314	0.21902285
958.479	0.21791904
958.644	0.21769628
958.81	0.21775332
958.975	0.2169215
959.14	0.21766653
959.306	0.21714882
959.471	0.21647216
959.636	0.21619842
959.801	0.21636188
959.967	0.21588003
960.132	0.21584787
960.297	0.21502429
960.462	0.21503289
960.627	0.2150217
960.792	0.21488103
960.957	0.21440829
961.123	0.21440142
961.288	0.21367857
961.453	0.21366296
961.618	0.21306426
961.783	0.21292865
961.948	0.21226041
962.113	0.21118295
962.277	0.21050267
962.442	0.20981863
962.607	0.20936021
962.772	0.20896472
962.937	0.20835742
963.102	0.2083552
963.267	0.20813531
963.431	0.20782914
963.596	0.20775778
963.761	0.20692427
963.926	0.20643888
964.09	0.20603825
964.255	0.20578599
964.42	0.20532421
964.584	0.20515931
964.749	0.20450811
964.914	0.20405221
965.078	0.20346785
965.243	0.20300563
965.407	0.20242192
965.572	0.20207119
965.736	0.20161048
965.901	0.20166089
966.065	0.20227258
966.23	0.20188735
966.394	0.20185753
966.559	0.20152861
966.723	0.20150478
966.887	0.20095437
967.052	0.20020747
967.216	0.19927338
967.38	0.19886291
967.545	0.19857516
967.709	0.19820052
967.873	0.19780606
968.037	0.197375
968.202	0.19713769
968.366	0.19677989
968.53	0.19659652
968.694	0.19597267
968.858	0.19565342
969.022	0.19510302
969.187	0.19464121
969.351	0.19451268
969.515	0.19431447
969.679	0.19384413
969.843	0.19329075
970.007	0.19281005
970.171	0.19288289
970.335	0.19285319
970.499	0.19249599
970.662	0.1919916
970.826	0.19215564
970.99	0.19208029
971.154	0.19167169
971.318	0.19093143
971.482	0.18990282
971.645	0.18913713
971.809	0.18907796
971.973	0.18842798
972.137	0.18777302
972.3	0.18733263
972.464	0.18695503
972.628	0.18729399
972.791	0.18752958
972.955	0.18693682
973.119	0.1862497
973.282	0.18601731
973.446	0.18602366
973.609	0.18578348
973.773	0.18538748
973.936	0.18473693
974.1	0.18421575
974.263	0.18426419
974.427	0.18416741
974.59	0.18346261
974.754	0.18292539
974.917	0.18226039
975.08	0.1820778
975.244	0.18175572
975.407	0.18150379
975.57	0.18123959
975.734	0.18105744
975.897	0.1809493
976.06	0.18103822
976.223	0.18062045
976.387	0.18053026
976.55	0.17996188
976.713	0.17959363
976.876	0.1793701
977.039	0.17861499
977.202	0.17829753
977.365	0.17795289
977.528	0.17731151
977.692	0.1769803
977.855	0.17625715
978.018	0.17561221
978.181	0.17515151
978.344	0.17462042
978.506	0.17388728
978.669	0.17353189
978.832	0.17314882
978.995	0.17288127
979.158	0.17279006
979.321	0.17255545
979.484	0.1721831
979.646	0.17193583
979.809	0.17202627
979.972	0.17165152
980.135	0.17180797
980.297	0.17196529
980.46	0.1715895
980.623	0.17130737
980.786	0.17153626
980.948	0.17098967
981.111	0.17080575
981.273	0.16999
981.436	0.16911066
981.599	0.16940135
981.761	0.16862146
981.924	0.16836305
982.086	0.16835773
982.249	0.16833997
982.411	0.16818202
982.573	0.16830232
982.736	0.16847639
982.898	0.16880315
983.061	0.16830723
983.223	0.16781998
983.385	0.16761414
983.548	0.16814383
983.71	0.16797456
983.872	0.16755376
984.034	0.16716414
984.197	0.16673485
984.359	0.16673248
984.521	0.1664468
984.683	0.16588231
984.845	0.16554628
985.008	0.16480428
985.17	0.16475705
985.332	0.16471002
985.494	0.16407576
985.656	0.16389099
985.818	0.16312369
985.98	0.16281259
986.142	0.16185139
986.304	0.16146925
986.466	0.16049452
986.628	0.1599762
986.79	0.15940787
986.952	0.15857435
987.113	0.15784847
987.275	0.15770483
987.437	0.15708434
987.599	0.15702832
987.761	0.15730336
987.922	0.15674776
988.084	0.15701788
988.246	0.15674665
988.408	0.15670459
988.569	0.15694928
988.731	0.15735686
988.893	0.15703969
989.054	0.15729453
989.216	0.1571442
989.377	0.1566607
989.539	0.15667881
989.701	0.15542811
989.862	0.15482316
990.024	0.15391964
990.185	0.15284759
990.347	0.15258548
990.508	0.15221232
990.669	0.15157858
990.831	0.15182687
990.992	0.15190233
991.154	0.15143906
991.315	0.15198746
991.476	0.15164542
991.638	0.15203815
991.799	0.15222155
991.96	0.15222364
992.121	0.15156111
992.283	0.151573
992.444	0.15095987
992.605	0.15046693
992.766	0.14984491
992.927	0.14922381
993.088	0.14877017
993.249	0.14863181
993.41	0.14848205
993.572	0.14836529
993.733	0.1484307
993.894	0.147809
994.055	0.14684504
994.216	0.14663493
994.376	0.14531648
994.537	0.14517956
994.698	0.14461075
994.859	0.14406828
995.02	0.14432744
995.181	0.1440232
995.342	0.14384092
995.503	0.14435959
995.663	0.14388945
995.824	0.14355634
995.985	0.14375678
996.146	0.14388489
996.306	0.14451967
996.467	0.14419371
996.628	0.14402051
996.788	0.14411861
996.949	0.14455335
997.11	0.14404627
997.27	0.14312603
997.431	0.14301968
997.591	0.14230935
997.752	0.14180175
997.912	0.14164478
998.073	0.1411901
998.233	0.14175856
998.394	0.14171576
998.554	0.14168882
998.714	0.14204365
998.875	0.14203922
999.035	0.14117903
999.196	0.14106311
999.356	0.13986962
999.516	0.1400229
999.676	0.13964138
999.837	0.13914422
999.997	0.13833794
1000.157	0.13843025
1000.317	0.13708468
1000.477	0.13675263
1000.638	0.1360445
1000.798	0.1361424
1000.958	0.13608607
1001.118	0.13612556
1001.278	0.13531597
1001.438	0.13576865
1001.598	0.13532935
1001.758	0.13514404
1001.918	0.13400119
1002.078	0.13360029
1002.238	0.13356979
1002.398	0.13399713
1002.558	0.13342557
1002.718	0.13339106
1002.878	0.13328049
1003.037	0.13198288
1003.197	0.13177734
1003.357	0.13090169
1003.517	0.13085083
1003.677	0.12982233
1003.836	0.12931236
1003.996	0.12836924
1004.156	0.12899534
1004.315	0.12868726
1004.475	0.12925259
1004.635	0.12862909
1004.794	0.12933023
1004.954	0.12990228
1005.114	0.12985034
1005.273	0.13001184
1005.433	0.12920832
1005.592	0.12805494
1005.752	0.12758615
1005.911	0.12709248
1006.071	0.12678732
1006.23	0.12586096
1006.389	0.12506679
1006.549	0.12468722
1006.708	0.12530732
1006.868	0.12398858
1007.027	0.12433859
1007.186	0.12392214
1007.345	0.12508817
1007.505	0.12576945
1007.664	0.12616172
1007.823	0.12592475
1007.982	0.12711222
1008.142	0.12726018
1008.301	0.1272027
1008.46	0.1265804
1008.619	0.12513826
1008.778	0.12550146
1008.937	0.1250345
1009.096	0.1246592
1009.255	0.12347355
1009.414	0.12184294
1009.573	0.12212332
1009.732	0.12322524
1009.891	0.12164539
1010.05	0.12204964
1010.209	0.12150454
1010.368	0.12201527
1010.527	0.12229886
1010.686	0.12187433
1010.845	0.12060363
1011.003	0.12096728
1011.162	0.1204587
1011.321	0.11995507
1011.48	0.12007768
1011.638	0.12055012
1011.797	0.11962328
1011.956	0.12022908
1012.115	0.12069987
1012.273	0.11963913
1012.432	0.12002431
1012.59	0.11869435
1012.749	0.1180008
1012.908	0.11809931
1013.066	0.11787668
1013.225	0.11700072
1013.383	0.11811971
1013.542	0.11828496
1013.7	0.11828887
1013.859	0.11895986
1014.017	0.1190893
1014.175	0.11857016
1014.334	0.11947891
1014.492	0.11916623
1014.65	0.11909424
1014.809	0.11927499
1014.967	0.11918285
1015.125	0.12005954
1015.284	0.12090439
1015.442	0.12045165
1015.6	0.11992069
1015.758	0.11971435
1015.916	0.11910843
1016.075	0.11766458
1016.233	0.11685139
1016.391	0.11716396
1016.549	0.11689558
1016.707	0.11709195
1016.865	0.11794017
1017.023	0.11757263
1017.181	0.11852813
1017.339	0.11806668
1017.497	0.11698248
1017.655	0.11624725
1017.813	0.11575412
1017.971	0.11473477
1018.129	0.11482595
1018.286	0.11454976
1018.444	0.11342157
1018.602	0.11325267
1018.76	0.1127858
1018.918	0.11291478
1019.075	0.11345697
1019.233	0.11371871
1019.391	0.11457523
1019.549	0.11670516
1019.706	0.11814656
1019.864	0.12004064
1020.022	0.12018834
1020.179	0.11916302
1020.337	0.11982637
1020.494	0.11871854
1020.652	0.11749757
1020.809	0.11660952
1020.967	0.11675874
1021.124	0.11655881
1021.282	0.11862931
1021.439	0.1176455
1021.597	0.11906061
1021.754	0.11834891
1021.911	0.11889692
1022.069	0.11689706
1022.226	0.11735497
1022.384	0.11293499
1022.541	0.1134853
1022.698	0.11273693
1022.855	0.1139108
1023.013	0.11312078
1023.17	0.11436829
1023.327	0.11388997
1023.484	0.11784559
1023.641	0.11706268
1023.798	0.1183963
1023.956	0.11846366
1024.113	0.11811593
1024.27	0.1173317
1024.427	0.11822984
1024.584	0.11767059
1024.741	0.1175452
1024.898	0.11568631
1025.055	0.11482085
1025.212	0.11467411
1025.369	0.11173366
1025.525	0.11065751
1025.682	0.11121991
1025.839	0.11174385
1025.996	0.1124299
1026.153	0.11402411
1026.31	0.11504182
1026.466	0.11859517
1026.623	0.119871
1026.78	0.11835144
1026.937	0.11909777
1027.093	0.11726384
1027.25	0.11750814
1027.407	0.11617123
1027.563	0.1141053
1027.72	0.11209483
1027.876	0.11291813
1028.033	0.11373427
1028.19	0.11303542
1028.346	0.1104881
1028.503	0.11163772
1028.659	0.11496952
1028.816	0.1174632
1028.972	0.12041414
1029.128	0.12140546
1029.285	0.12213775
1029.441	0.12158858
1029.598	0.12126294
1029.754	0.12140347
1029.91	0.12198654
1030.067	0.11894903
1030.223	0.1160186
1030.379	0.11680297
1030.535	0.12114142
1030.691	0.11967892
1030.848	0.11917748
1031.004	0.11647536
1031.16	0.11693437
1031.316	0.12055185
1031.472	0.12215608
1031.628	0.11819432
1031.784	0.12044452
1031.94	0.12368931
1032.096	0.12424772
1032.252	0.12496717
1032.408	0.1279136
1032.564	0.12752743
1032.72	0.13107752
1032.876	0.12769014
1033.032	0.1215824
1033.188	0.12279445
1033.344	0.12348165
1033.5	0.12171541
1033.655	0.12199526
1033.811	0.12117843
1033.967	0.12602597
